batter_id,pitcher_id,ab,h,hr,rbi,k,bb,avg,ops
663494,453286,2,0,0,0,1,0,.000,.000
676475,656876,2,1,0,0,0,0,.500,1.000
676475,671737,6,3,1,3,2,0,.500,1.667
676475,669022,11,4,0,4,1,1,.364,.872
676475,669302,5,0,0,0,4,1,.000,.167
676475,683000,1,1,0,0,0,0,1.000,2.000
676475,663738,1,0,0,0,0,0,.000,.000
676475,650633,8,3,1,1,0,2,.375,1.250
676475,607259,3,0,0,0,0,0,.000,.000
676475,684007,13,1,0,0,4,0,.077,.231
676475,640455,4,1,0,0,1,0,.250,.500
676475,453286,4,1,0,0,1,1,.250,.650
676475,664299,1,1,0,1,0,0,1.000,3.000
676475,683003,5,0,0,0,1,1,.000,.167
676475,605135,8,4,1,1,0,0,.500,1.500
676475,641743,4,2,0,1,1,0,.500,1.500
676475,607536,5,0,0,0,2,1,.000,.167
676475,608331,3,1,0,0,1,0,.333,1.333
676475,683627,3,0,0,0,1,0,.000,.000
676475,554430,10,3,0,2,2,1,.300,.817
676475,669160,2,0,0,0,0,0,.000,.000
676475,647336,2,1,0,2,0,0,.500,1.000
663494,671737,3,0,0,0,0,0,.000,.000
693409,554430,2,1,0,0,0,0,.500,1.000
671056,579328,2,2,2,3,0,1,1.000,5.000
671056,640455,3,1,0,2,0,0,.333,1.000
671056,453286,3,0,0,0,0,0,.000,.000
671056,554430,6,2,0,1,1,0,.333,.666
671056,669022,5,1,0,0,1,1,.200,.533
671056,641743,1,0,0,0,0,0,.000,.500
671056,607536,9,4,1,1,2,0,.444,1.444
671056,647336,1,0,0,0,0,0,.000,.000
671056,663738,2,1,0,0,0,0,.500,1.000
671056,650633,7,1,0,0,2,0,.143,.393
671056,607259,1,0,0,0,0,1,.000,.500
671056,608331,3,1,0,1,1,0,.333,.666
671056,684007,10,3,1,2,2,0,.300,.964
671056,676083,2,0,0,0,0,0,.000,.000
671056,702275,2,0,0,0,0,0,.000,.000
671056,683000,1,0,0,0,1,0,.000,.000
671056,683003,3,0,0,0,0,0,.000,.000
671056,605135,7,2,0,0,2,0,.286,.572
671056,656876,3,0,0,0,0,0,.000,.000
671056,683627,1,1,0,0,0,0,1.000,2.000
802139,650633,4,1,0,0,0,2,.250,.750
671056,671737,3,0,0,0,0,0,.000,.000
802139,663738,3,0,0,0,0,0,.000,.000
671056,669302,2,1,1,1,1,0,.500,2.667
802139,684007,5,3,1,1,0,1,.600,2.267
802139,607536,3,1,0,0,1,0,.333,.666
802139,702275,2,0,0,0,0,0,.000,.000
802139,656876,3,1,1,1,0,0,.333,1.666
802139,676083,2,0,0,0,0,0,.000,.000
802139,554430,2,1,0,0,1,1,.500,1.167
802139,683627,3,0,0,0,1,0,.000,.000
802139,605135,2,1,0,0,0,0,.500,1.000
802139,671737,3,1,1,2,1,0,.333,1.666
802139,683000,1,1,0,1,0,0,1.000,2.000
802139,683003,3,0,0,0,2,0,.000,.000
691023,669022,9,3,0,0,3,0,.333,.666
691023,554430,6,2,0,1,1,0,.333,.833
691023,453286,3,1,0,0,0,0,.333,.666
691023,647336,1,1,0,1,0,0,1.000,3.000
691023,579328,2,0,0,0,0,1,.000,.333
691023,663738,1,0,0,0,0,0,.000,.000
691023,607259,5,1,0,0,1,0,.200,.400
691023,684007,6,1,0,0,1,2,.167,.542
691023,607536,10,2,0,0,1,1,.200,.673
691023,650633,6,0,0,0,1,0,.000,.000
691023,605135,5,0,0,0,1,0,.000,.000
691023,702275,2,1,0,0,0,0,.500,1.000
691023,682227,5,0,0,0,1,0,.000,.000
691023,671737,3,0,0,0,2,0,.000,.000
691023,683000,1,0,0,0,1,0,.000,.000
691023,683627,1,0,0,0,1,1,.000,.500
691023,669302,2,0,0,0,1,0,.000,.333
691023,641743,4,1,0,0,0,0,.250,.500
691023,623454,1,1,1,4,0,0,1.000,5.000
691023,656876,2,0,0,0,0,0,.000,.000
691023,608331,6,1,0,0,0,0,.167,.500
691023,683003,3,2,0,0,1,0,.667,1.334
665877,669022,2,1,0,0,0,1,.500,1.667
665877,663738,2,0,0,0,1,1,.000,.333
665877,554430,2,0,0,0,0,0,.000,.000
665877,684007,4,1,0,0,0,0,.250,.500
665877,641743,3,0,0,0,0,0,.000,.000
665877,607536,3,1,0,2,0,2,.333,1.267
665877,702275,2,0,0,0,0,0,.000,.000
665877,453286,2,0,0,0,0,0,.000,.000
665877,640455,3,2,0,0,0,0,.667,1.334
665877,683003,3,2,0,0,1,0,.667,1.334
665877,676083,2,0,0,0,0,0,.000,.000
665877,671737,3,1,0,0,1,0,.333,.666
665877,682227,2,1,0,0,0,0,.500,1.000
665877,605135,2,0,0,0,0,0,.000,.000
665877,669302,4,0,0,0,2,0,.000,.000
699024,641743,2,1,0,0,0,0,.500,1.500
691026,579328,2,0,0,0,2,0,.000,.000
699024,683627,3,0,0,0,1,0,.000,.000
691026,663738,3,1,0,0,0,1,.333,1.167
691026,640455,6,2,0,0,1,0,.333,.833
691026,647336,3,1,0,0,0,0,.333,1.000
691026,669022,13,5,1,4,4,2,.385,1.159
691026,607536,8,1,0,1,1,0,.125,.375
691026,554430,7,1,0,0,2,0,.143,.429
691026,608331,5,1,1,3,2,0,.200,1.000
691026,683003,3,2,0,1,0,0,.667,1.334
691026,641743,2,0,0,1,1,0,.000,.000
691026,650633,7,1,0,0,1,0,.143,.286
691026,607259,6,1,0,1,0,0,.167,.500
691026,453286,5,1,1,1,1,0,.200,1.000
691026,684007,16,5,1,2,6,0,.313,.813
691026,656876,2,0,0,0,1,0,.000,.000
691026,605135,4,0,0,0,1,0,.000,.000
691026,683000,1,1,0,1,0,0,1.000,2.000
691026,702275,2,0,0,0,1,0,.000,.000
691026,683627,1,0,0,0,0,0,.000,.000
691026,682227,4,2,0,0,2,1,.500,1.100
691026,669302,3,0,0,0,2,0,.000,.000
691026,671737,3,2,0,0,0,0,.667,1.667
701675,663738,2,0,0,0,1,0,.000,.000
701675,453286,1,1,0,0,0,1,1.000,2.000
701675,607536,2,0,0,0,0,0,.000,.000
701675,702275,2,0,0,0,0,0,.000,.000
701675,683000,1,0,0,0,0,0,.000,.000
701675,676083,1,0,0,0,1,1,.000,.500
701675,650633,3,1,0,1,0,1,.333,.833
701675,656876,2,1,0,0,0,0,.500,1.000
701675,605135,3,2,1,1,0,0,.667,2.334
701675,684007,1,0,0,0,1,1,.000,.500
701675,554430,3,1,0,1,0,0,.333,1.000
701675,641743,1,0,0,0,0,1,.000,.500
701675,669302,2,0,0,0,2,0,.000,.000
701675,683627,2,2,0,0,0,0,1.000,2.000
701675,683003,1,0,0,1,0,0,.000,.000
669357,647336,5,1,1,2,3,0,.200,1.000
701675,623454,1,0,0,0,0,0,.000,.000
701675,671737,2,2,0,0,0,1,1.000,2.000
669357,453286,2,0,0,0,1,0,.000,.000
669357,554430,13,4,1,2,5,2,.308,1.015
669357,669022,5,1,0,0,2,0,.200,.600
669357,684007,8,1,0,1,2,0,.125,.250
669357,607536,1,0,0,0,0,0,.000,.000
669357,650633,3,0,0,0,2,0,.000,.000
669357,608331,4,2,1,2,1,2,.500,1.917
669357,656876,3,0,0,0,2,0,.000,.000
669357,641743,1,0,0,0,1,0,.000,.000
669357,607259,5,2,1,2,1,1,.400,1.500
669357,671737,2,1,0,0,0,1,.500,1.667
669357,669160,2,0,0,0,1,1,.000,.333
669357,683003,3,1,0,0,1,1,.333,1.167
669357,682227,1,0,0,0,0,1,.000,.500
669357,605135,7,3,3,7,2,1,.429,2.214
669357,676083,2,0,0,0,0,0,.000,.000
669357,683627,3,0,0,0,0,0,.000,.000
669357,669302,1,0,0,0,1,1,.000,.500
669357,664299,2,1,0,0,0,0,.500,1.000
686780,669022,4,1,0,0,1,0,.250,.500
686780,640455,3,1,0,0,2,0,.333,.666
686780,663738,1,0,0,0,1,0,.000,.000
686780,607259,2,1,0,0,0,0,.500,1.500
686780,684007,11,1,1,2,4,0,.091,.455
686780,608331,2,2,0,0,0,0,1.000,2.000
686780,650633,2,0,0,0,1,0,.000,.000
686780,656876,2,0,0,0,0,0,.000,.000
686780,605135,3,0,0,0,0,0,.000,.000
686780,607536,2,0,0,0,1,0,.000,.000
686780,683627,2,0,0,0,1,0,.000,.000
686780,676083,2,1,0,0,0,0,.500,1.000
695336,684007,6,2,1,1,1,0,.333,1.166
695336,669022,3,2,0,1,1,0,.667,2.000
686780,682227,2,0,0,0,1,0,.000,.000
686780,669302,5,3,1,2,1,0,.600,1.800
695336,663738,1,0,0,0,0,0,.000,.000
695336,641743,2,1,0,0,0,0,.500,1.000
695336,682227,2,0,0,0,0,0,.000,.000
695336,607536,4,1,0,0,1,1,.250,.650
695336,683000,1,0,0,0,0,0,.000,.000
695336,608331,2,0,0,0,1,0,.000,.000
695336,623454,1,0,0,0,0,0,.000,.000
695336,607259,1,0,0,0,0,0,.000,.000
695336,683627,2,0,0,0,1,0,.000,.000
687363,640455,3,0,0,0,1,0,.000,.000
695336,676083,2,0,0,0,1,0,.000,.000
687363,647336,2,0,0,0,1,0,.000,.000
695336,669302,2,2,0,0,0,0,1.000,2.000
687363,669022,6,0,0,0,4,0,.000,.000
687363,579328,2,0,0,0,1,1,.000,.333
687363,608331,2,1,0,1,0,0,.500,1.000
687363,663738,2,0,0,0,0,0,.000,.333
687363,554430,4,1,0,1,0,0,.250,.450
687363,650633,4,1,0,0,1,0,.250,.750
687363,607536,4,3,0,0,0,1,.750,1.550
687363,684007,4,0,0,0,1,0,.000,.000
687363,656876,3,1,0,0,1,0,.333,.666
687363,607259,2,0,0,0,1,1,.000,.333
687363,676083,1,0,0,0,0,0,.000,.000
687363,605135,2,1,0,0,0,1,.500,1.167
687363,623454,1,0,0,0,1,0,.000,.000
687363,671737,2,0,0,0,1,0,.000,.000
801126,669620,1,1,0,0,0,0,1.000,2.000
801126,453286,2,0,0,0,0,0,.000,.000
801126,554430,2,0,0,0,1,0,.000,.000
663728,669022,13,2,0,0,4,0,.154,.368
663728,579328,11,4,0,2,2,2,.364,.974
663728,684007,2,1,0,0,1,0,.500,1.000
663728,554430,4,3,2,3,0,2,.750,3.333
663728,640455,7,1,1,3,2,0,.143,.714
663728,650633,12,3,0,1,7,1,.250,.725
801126,669160,1,0,0,0,0,0,.000,.000
663728,453286,4,1,0,0,2,1,.250,.900
663728,663738,7,3,2,3,2,1,.429,1.786
663728,641743,3,0,0,0,2,0,.000,.000
663728,608331,11,1,0,1,3,1,.091,.349
663728,669467,2,0,0,0,1,1,.000,.333
663728,607259,8,2,1,1,1,1,.250,.958
663728,664299,6,3,1,4,1,1,.500,1.571
663728,605135,7,0,0,0,4,2,.000,.222
663728,623454,3,0,0,0,0,0,.000,.000
663728,669160,1,0,0,0,1,1,.000,.500
663728,669620,1,0,0,0,0,0,.000,.000
663728,656876,10,1,1,1,5,2,.100,.650
663728,676083,2,0,0,0,1,1,.000,.333
702284,453286,2,0,0,0,1,0,.000,.000
663728,801139,6,0,0,0,2,0,.000,.000
702284,669022,5,2,0,0,1,0,.400,.800
702284,579328,2,0,0,0,2,0,.000,.000
702284,663738,2,1,0,0,1,0,.500,1.000
663728,683627,2,1,0,0,1,0,.500,1.000
702284,554430,3,1,1,1,0,0,.333,1.666
702284,640455,3,1,0,0,0,1,.333,1.167
663728,671737,9,2,2,2,1,3,.222,1.306
702284,669467,2,1,0,1,1,0,.500,1.000
702284,650633,2,0,0,0,1,0,.000,.000
702284,684007,1,0,0,0,1,0,.000,.000
702284,608331,2,0,0,0,0,0,.000,.000
702284,669620,3,0,0,0,0,0,.000,.000
702284,669160,1,0,0,0,0,1,.000,.500
702284,623454,4,1,0,0,0,0,.250,.500
702284,641743,3,0,0,0,1,1,.000,.250
702284,683000,1,1,0,0,0,0,1.000,2.000
702284,656876,7,1,0,0,2,0,.143,.286
702284,683627,1,0,0,0,0,0,.000,.000
702284,607259,2,1,1,1,0,0,.500,2.500
702284,702275,2,0,0,0,0,0,.000,.000
702284,671737,7,4,0,2,0,0,.571,1.285
702284,676083,1,0,0,0,0,1,.000,.500
686527,579328,1,0,0,0,0,2,.000,.667
686527,640455,3,0,0,0,1,0,.000,.000
702284,801139,4,1,0,1,0,0,.250,.650
686527,453286,3,0,0,0,2,0,.000,.000
686527,669022,3,1,0,2,1,0,.333,1.000
686527,608331,1,0,0,0,1,1,.000,.500
686527,663738,2,2,1,1,0,0,1.000,3.500
686527,554430,3,1,0,0,1,0,.333,.666
686527,684007,1,1,0,0,0,0,1.000,2.000
686527,669467,3,1,0,2,1,0,.333,.666
686527,669620,1,1,0,0,0,0,1.000,2.000
686527,650633,1,0,0,1,0,0,.000,.000
686527,607259,3,1,0,0,0,0,.333,1.000
686527,656876,6,0,0,0,1,0,.000,.000
686527,702275,2,1,0,0,1,1,.500,1.167
686527,605135,2,1,1,1,0,1,.500,2.667
686527,623454,3,0,0,0,0,0,.000,.000
686527,669160,2,2,0,2,0,0,1.000,2.500
686527,683000,2,0,0,0,0,0,.000,.000
686527,669302,3,2,0,0,0,0,.667,1.667
686527,676083,3,1,0,0,0,0,.333,.666
641487,663738,13,4,0,2,1,0,.308,.693
686527,801139,6,1,1,2,1,0,.167,.834
641487,554430,3,1,0,3,0,0,.333,1.333
641487,669467,2,0,0,0,1,1,.000,.333
641487,669620,1,0,0,0,0,1,.000,.500
641487,579328,18,3,0,1,2,1,.167,.378
641487,669022,10,3,2,3,3,0,.300,1.200
641487,607536,3,1,0,1,1,0,.333,.666
686527,671737,11,2,0,0,4,0,.182,.546
641487,684007,3,1,0,0,0,0,.333,.666
641487,640455,26,6,0,0,10,2,.231,.517
641487,650633,11,1,0,0,3,0,.091,.258
641487,608331,6,0,0,0,3,0,.000,.000
641487,607074,5,3,0,0,1,0,.600,1.200
641487,453286,9,3,0,1,2,1,.333,.844
641487,623454,3,1,0,0,0,0,.333,.666
641487,607259,9,5,0,1,2,0,.556,1.334
641487,702275,1,0,0,0,0,2,.000,.667
641487,641743,3,0,0,0,0,0,.000,.000
641487,664299,14,3,0,1,7,4,.214,.675
641487,683627,1,1,0,0,0,0,1.000,2.000
641487,605135,26,7,0,2,9,2,.269,.772
641487,656876,9,0,0,0,2,0,.000,.000
641487,669160,1,0,0,0,1,1,.000,.500
641487,801139,5,2,0,0,1,0,.400,.800
641487,671737,10,3,1,1,2,2,.300,1.117
641487,676083,3,1,0,0,1,1,.333,.833
640902,669022,2,0,0,0,0,0,.000,.000
640902,663738,1,0,0,0,1,0,.000,.000
640902,684007,2,0,0,0,0,0,.000,.000
640902,554430,2,0,0,0,0,0,.000,.000
640902,623454,1,1,0,0,0,0,1.000,2.000
640902,608331,2,1,0,0,0,0,.500,1.000
640902,800048,2,0,0,0,2,0,.000,.000
640902,607074,5,2,0,0,2,0,.400,1.000
640902,683000,2,0,0,0,1,0,.000,.000
647304,669467,8,2,1,1,1,3,.250,1.080
647304,647336,9,6,2,4,1,1,.667,2.256
647304,669022,2,0,0,0,0,1,.000,.333
647304,684007,7,4,0,1,0,0,.571,1.285
647304,608331,5,2,0,0,1,0,.400,.800
647304,669620,1,1,0,0,0,0,1.000,2.000
647304,605135,3,2,0,1,0,0,.667,1.667
647304,579328,11,4,0,2,2,0,.364,.819
647304,650633,8,2,0,1,1,0,.250,.500
647304,453286,8,1,0,0,3,0,.125,.250
647304,554430,6,4,0,0,1,0,.667,1.334
647304,607259,7,1,0,1,1,1,.143,.393
647304,663738,10,3,0,2,3,1,.300,.764
647304,640455,4,0,0,0,0,0,.000,.000
647304,702275,3,1,0,0,0,0,.333,.666
647304,801139,4,0,0,0,0,2,.000,.333
647304,664299,8,2,0,1,3,0,.250,.500
647304,683000,2,0,0,0,0,0,.000,.000
647304,683627,4,2,0,0,0,0,.500,1.250
647304,623454,1,0,0,0,0,0,.000,.000
647304,669160,16,6,0,5,3,0,.375,.813
647304,676083,2,1,0,0,0,0,.500,1.000
677594,579328,20,5,1,1,7,1,.250,.686
647304,656876,7,1,0,1,2,1,.143,.393
647304,671737,14,2,0,3,2,3,.143,.508
647304,641743,4,0,0,0,1,1,.000,.200
647304,607074,13,2,0,0,3,0,.154,.308
647304,669302,11,5,1,2,1,0,.455,1.144
677594,554430,3,2,1,3,0,0,.667,2.334
677594,669022,13,2,0,0,2,1,.154,.368
677594,669467,3,0,0,0,0,0,.000,.000
677594,684007,5,0,0,0,1,0,.000,.000
677594,663738,5,2,1,2,0,2,.400,1.571
677594,607259,6,1,0,0,1,0,.167,.334
677594,453286,8,2,1,1,3,0,.250,.875
677594,608331,14,4,0,0,3,1,.286,.619
677594,669620,1,0,0,0,0,0,.000,.000
677594,669160,1,0,0,1,0,0,.000,.000
677594,650633,12,0,0,0,5,2,.000,.143
677594,605135,6,1,0,0,3,0,.167,.334
677594,702275,2,0,0,0,0,1,.000,.333
677594,641743,5,3,0,0,0,0,.600,1.200
677594,683000,1,0,0,0,0,1,.000,.500
677594,640455,9,3,1,4,2,0,.333,1.111
677594,664299,8,1,0,1,3,1,.125,.325
677594,623454,3,2,0,0,0,1,.667,1.750
677594,683627,2,1,0,0,0,0,.500,1.000
677594,656876,13,4,1,1,3,0,.308,1.000
677594,676083,1,1,0,1,0,0,1.000,2.000
677594,671737,15,6,1,1,2,0,.400,1.067
677594,801139,5,2,0,1,2,1,.400,1.100
703155,669620,1,0,0,0,0,0,.000,.000
668227,647336,2,1,1,2,1,1,.500,2.667
668227,669467,4,2,0,1,2,0,.500,1.250
668227,669022,11,3,1,2,5,0,.273,.909
668227,684007,1,1,1,1,0,1,1.000,5.000
668227,453286,5,0,0,0,2,0,.000,.000
668227,640455,11,5,0,1,2,2,.455,1.083
668227,554430,14,1,0,1,7,2,.071,.306
668227,663738,6,0,0,0,2,1,.000,.143
668227,669620,1,0,0,0,0,0,.000,.000
668227,579328,30,7,3,4,11,4,.233,.857
668227,702275,2,1,0,0,0,1,.500,1.167
668227,608331,8,1,0,0,1,2,.125,.489
668227,641743,6,1,0,0,1,1,.167,.542
668227,623454,3,0,0,0,0,0,.000,.000
668227,669160,1,1,0,0,0,0,1.000,2.000
668227,683000,1,0,0,0,0,0,.000,.000
668227,607074,10,3,1,2,3,0,.300,1.000
668227,656876,10,3,0,0,2,0,.300,.600
668227,607259,5,3,0,1,0,2,.600,1.514
668227,650633,14,6,2,4,3,2,.429,1.429
668227,801139,3,3,1,2,0,0,1.000,3.333
668227,676083,3,2,1,3,0,1,.667,2.750
668227,683003,2,0,0,0,2,1,.000,.333
668227,683627,1,1,0,0,0,0,1.000,2.000
668227,671737,6,0,0,0,1,1,.000,.143
668227,605135,16,6,1,2,5,0,.375,1.162
668227,664299,4,0,0,0,1,3,.000,.556
621493,647336,2,1,0,2,1,0,.500,1.167
621493,663738,4,0,0,0,1,1,.000,.200
621493,640455,12,3,0,0,3,0,.250,.500
621493,607259,5,0,0,0,1,0,.000,.000
621493,607536,11,2,0,0,4,0,.182,.364
621493,579328,16,5,2,4,2,0,.313,1.063
621493,669022,4,1,0,0,1,1,.250,.650
621493,453286,5,2,0,0,2,2,.400,.971
621493,554430,5,1,0,0,2,2,.200,.629
668227,669302,11,4,0,3,6,0,.364,1.091
621493,650633,5,1,0,1,1,1,.200,.533
621493,608331,3,1,0,0,0,2,.333,.933
621493,669160,4,2,0,2,1,1,.500,1.100
621493,623454,3,2,0,0,0,0,.667,1.334
621493,607074,14,4,2,3,5,1,.286,1.047
621493,664299,17,1,0,0,9,4,.059,.297
621493,671737,6,1,0,0,2,0,.167,.334
621493,801139,8,3,0,0,0,1,.375,.819
621493,669302,28,8,1,2,8,1,.286,.787
621493,656876,6,1,1,1,2,0,.167,.834
621493,605135,12,2,1,3,3,1,.167,.648
645302,579328,4,1,0,0,1,1,.250,.650
621493,676083,2,1,0,0,1,0,.500,1.500
621493,800048,2,0,0,0,0,1,.000,.333
645302,453286,7,0,0,0,2,0,.000,.000
645302,607536,11,4,0,0,2,0,.364,.819
645302,650633,3,1,1,2,1,1,.333,1.933
645302,640455,5,1,0,0,0,0,.200,.600
645302,605135,5,0,0,0,1,0,.000,.000
645302,647336,10,0,0,0,3,0,.000,.000
645302,608331,29,9,0,1,7,1,.310,.720
645302,554430,29,6,0,1,7,2,.207,.499
645302,663738,3,1,0,1,1,0,.333,1.000
645302,607259,1,1,0,0,0,0,1.000,2.000
645302,664299,2,1,0,0,1,0,.500,1.000
642215,663738,1,0,0,0,1,0,.000,.000
645302,656876,2,0,0,0,0,0,.000,.000
645302,676083,3,1,0,1,1,0,.333,.666
642215,669022,12,5,1,2,4,1,.417,1.129
642215,640455,6,0,0,0,2,0,.000,.000
645302,623454,1,0,0,0,0,0,.000,.000
645302,801139,3,0,0,0,1,0,.000,.000
645302,671737,3,0,0,0,1,0,.000,.000
642215,579328,2,0,0,0,0,0,.000,.000
642215,554430,2,0,0,0,2,0,.000,.000
642215,608331,9,3,1,1,2,1,.333,1.067
642215,607536,1,0,0,0,1,1,.000,.500
642215,684007,1,0,0,0,0,0,.000,.000
642215,607074,1,0,0,0,0,1,.000,.500
642215,656876,1,1,0,1,0,0,1.000,2.000
695257,669467,2,0,0,0,0,0,.000,.000
642215,801139,3,1,0,0,1,1,.333,.833
695257,663738,1,0,0,0,0,0,.000,.000
695257,607536,2,0,0,0,2,0,.000,.000
695257,684007,2,0,0,0,1,0,.000,.000
695257,608331,1,0,0,0,1,0,.000,.000
695257,683000,1,0,0,0,1,0,.000,.000
695257,607074,2,0,0,0,1,0,.000,.000
664040,579328,12,0,0,0,6,0,.000,.000
695257,607259,2,0,0,0,2,0,.000,.000
664040,669467,4,2,0,1,1,0,.500,1.250
664040,647336,6,2,1,1,2,0,.333,1.166
664040,684007,3,0,0,0,2,0,.000,.000
664040,640455,10,0,0,0,5,0,.000,.000
664040,453286,3,1,0,0,1,0,.333,.666
664040,607536,7,2,0,0,4,0,.286,.715
664040,641743,5,3,1,2,0,3,.600,2.350
664040,554430,20,5,1,2,7,3,.250,.948
664040,608331,6,0,0,0,2,0,.000,.000
664040,650633,15,2,1,1,7,1,.133,.568
664040,683000,1,0,0,0,0,0,.000,.000
664040,656876,2,0,0,0,0,0,.000,.000
664040,702275,1,0,0,0,0,0,.000,.000
664040,800048,6,2,0,0,0,0,.333,.833
664040,669302,7,2,0,0,3,2,.286,.873
664040,607259,4,2,0,0,1,0,.500,1.250
664040,664299,4,3,1,3,1,0,.750,2.300
664040,682227,2,0,0,0,1,0,.000,.000
664040,669160,6,2,2,2,1,3,.333,1.889
668804,647336,3,2,0,0,1,0,.667,1.417
664040,676083,3,1,0,0,1,0,.333,.666
664040,605135,22,11,4,10,5,1,.500,1.678
668804,669467,26,4,2,4,7,0,.154,.616
664040,607074,9,2,1,1,5,3,.222,1.129
664040,683003,1,0,0,0,0,0,.000,.500
668804,669022,5,1,0,1,2,1,.200,.533
668804,579328,11,3,0,0,1,2,.273,.658
664040,671737,1,0,0,0,1,1,.000,.500
668804,607536,13,3,0,2,1,1,.231,.594
668804,554430,18,4,0,1,7,1,.222,.485
668804,453286,5,2,0,0,0,0,.400,1.000
668804,684007,20,2,1,1,4,0,.100,.350
668804,640455,12,3,1,2,1,2,.250,.940
668804,650633,10,5,0,1,2,2,.500,1.183
668804,607074,9,1,1,1,5,2,.111,.717
668804,669620,1,0,0,0,0,1,.000,.500
668804,607259,16,3,1,3,4,1,.188,.610
668804,656876,5,1,0,0,2,1,.200,.533
668804,605135,14,5,0,1,5,3,.357,.974
668804,608331,25,7,1,2,6,1,.280,.748
668804,671737,1,0,0,0,0,1,.000,.500
668804,664299,3,0,0,0,0,0,.000,.000
668804,669160,9,1,0,2,4,3,.111,.444
680779,647336,2,0,0,0,1,1,.000,.333
668804,801139,3,1,0,0,2,0,.333,.666
668804,683000,2,1,0,0,0,0,.500,1.000
668804,669302,2,0,0,0,1,1,.000,.333
668804,682227,8,1,1,1,1,0,.125,.625
680779,669022,3,2,0,0,0,0,.667,2.000
680779,554430,7,1,1,1,3,0,.143,.714
680779,669467,3,1,1,2,0,0,.333,1.583
668804,676083,4,0,0,0,0,1,.000,.200
680779,684007,6,1,0,0,1,0,.167,.334
680779,640455,2,0,0,0,1,1,.000,.333
680779,650633,1,0,0,0,0,0,.000,.500
680779,656876,1,0,0,0,0,0,.000,.000
680779,682227,3,1,0,0,0,1,.333,1.167
680779,608331,1,1,0,0,0,1,1.000,3.000
680779,676083,2,0,0,0,0,0,.000,.000
680779,605135,3,1,0,0,0,0,.333,.666
680779,607074,3,0,0,0,3,0,.000,.000
680779,683627,1,0,0,0,0,0,.000,.000
680779,669160,5,1,0,0,0,0,.200,.533
680779,607259,2,0,0,0,1,1,.000,.333
680779,801139,2,0,0,0,2,0,.000,.000
694378,623454,1,1,0,0,0,0,1.000,2.000
694378,684007,2,0,0,0,1,0,.000,.000
694378,669160,2,0,0,0,1,0,.000,.000
694378,650633,3,0,0,0,1,0,.000,.000
694378,671737,3,2,0,2,0,0,.667,1.334
663968,640455,3,1,1,1,1,0,.333,1.666
694378,676083,2,0,0,0,0,0,.000,.000
663968,554430,4,1,0,0,1,1,.250,.650
663968,663738,2,1,0,1,0,0,.500,1.000
663968,579328,6,0,0,0,1,0,.000,.000
663968,684007,5,1,0,0,0,0,.200,.400
663968,702275,1,1,0,1,0,0,1.000,3.000
663968,605135,3,2,0,0,0,0,.667,1.334
663968,669160,7,3,0,2,1,1,.429,.929
663968,676083,3,0,0,0,1,0,.000,.000
663968,608331,3,1,0,0,0,0,.333,.666
663968,607074,4,1,0,0,0,0,.250,.500
663968,650633,4,0,0,0,2,1,.000,.200
668804,683627,2,2,0,0,0,0,1.000,2.500
663968,683000,1,0,0,0,0,0,.000,.000
663968,682227,3,1,0,0,0,0,.333,.666
669707,554430,8,1,0,1,5,0,.125,.375
669707,579328,4,3,0,0,0,0,.750,1.750
669707,453286,2,0,0,0,1,0,.000,.000
669707,669467,6,2,0,0,2,0,.333,.666
669707,640455,4,0,0,0,1,1,.000,.200
669707,650633,5,1,0,0,0,0,.200,.400
669707,607536,6,4,1,3,0,0,.667,2.334
669707,647336,1,0,0,0,0,0,.000,.000
669707,663738,1,0,0,0,1,0,.000,.000
669707,607259,7,2,0,0,1,0,.286,.804
669707,669620,1,0,0,0,0,0,.000,.000
669707,608331,9,1,0,1,0,0,.111,.222
669707,684007,14,3,0,0,5,1,.214,.553
669707,607074,3,2,0,0,0,0,.667,2.000
669707,605135,3,1,0,0,2,0,.333,.666
669707,669160,4,1,0,0,1,1,.250,.750
669707,683627,1,1,0,0,0,0,1.000,2.000
669707,702275,1,0,0,0,0,0,.000,.000
669707,676083,3,0,0,0,0,0,.000,.000
669707,801139,3,0,0,0,1,0,.000,.000
669707,671737,2,0,0,0,1,0,.000,.000
669707,682227,2,1,0,0,1,0,.500,1.500
804606,669467,2,1,0,0,0,0,.500,1.000
804606,647336,3,1,0,0,1,0,.333,.666
804606,579328,3,0,0,0,2,0,.000,.000
804606,684007,5,2,0,0,2,0,.400,1.200
804606,554430,6,2,0,0,1,0,.333,.666
804606,607259,3,1,0,0,0,0,.333,.666
804606,683000,1,0,0,0,1,0,.000,.000
804606,671737,2,2,0,1,0,0,1.000,2.000
804606,669160,5,1,0,0,0,0,.200,.600
693304,607536,5,0,0,0,1,1,.000,.167
693304,647336,4,0,0,0,2,0,.000,.000
804606,656876,1,0,0,0,1,0,.000,.000
693304,669467,12,0,0,0,4,0,.000,.000
693304,579328,6,2,0,0,1,0,.333,.833
804606,605135,2,0,0,0,0,0,.000,.000
693304,640455,7,0,0,0,3,0,.000,.000
693304,554430,10,4,0,1,3,0,.400,.800
693304,684007,16,1,0,0,4,1,.063,.181
693304,650633,6,2,0,0,1,0,.333,.833
693304,608331,5,1,0,0,1,0,.200,.400
693304,607074,3,2,1,1,1,0,.667,2.334
693304,605135,6,2,0,0,2,0,.333,.666
693304,671737,2,1,0,0,0,0,.500,1.000
693304,453286,3,1,0,0,1,0,.333,.666
693304,683627,2,0,0,0,0,0,.000,.000
693304,669620,1,0,0,0,0,0,.000,.000
693304,607259,11,2,0,0,2,0,.182,.364
693304,801139,3,1,0,0,1,0,.333,.666
693304,683000,1,1,0,1,0,0,1.000,2.000
665833,669467,13,2,0,2,2,3,.154,.467
693304,676083,5,4,0,0,0,0,.800,1.800
693304,669160,7,2,0,0,1,0,.286,.804
665833,640455,1,1,0,0,0,0,1.000,2.000
665833,647336,3,0,0,0,1,0,.000,.000
665833,579328,5,1,0,1,3,0,.200,.800
693304,682227,2,1,0,0,0,0,.500,1.000
665833,669620,1,0,0,0,0,0,.000,.000
665833,669022,3,1,0,0,1,0,.333,.666
665833,663738,1,0,0,0,0,0,.000,.000
665833,608331,2,0,0,0,1,1,.000,.333
665833,684007,8,1,0,1,4,3,.125,.489
665833,554430,11,0,0,0,8,1,.000,.083
665833,650633,8,2,0,0,3,1,.250,.708
665833,607074,3,1,0,0,1,0,.333,1.000
665833,605135,10,3,0,1,5,0,.300,.664
665833,676083,3,1,0,0,0,0,.333,1.000
804668,579328,3,1,0,0,0,0,.333,1.000
665833,671737,2,1,1,2,0,0,.500,2.500
665833,669160,6,1,1,1,4,0,.167,.834
665833,607259,10,2,0,0,4,3,.200,.585
665833,682227,2,2,1,1,0,0,1.000,3.500
665833,683627,1,0,0,0,1,0,.000,.000
665833,669302,3,0,0,0,1,0,.000,.000
665833,656876,4,1,0,0,0,0,.250,.500
804668,640455,3,0,0,0,2,0,.000,.000
804668,684007,3,1,0,0,1,0,.333,.666
804668,669620,1,0,0,0,1,0,.000,.000
804668,702275,1,1,0,0,0,0,1.000,2.000
804668,608331,1,0,0,0,0,0,.000,.000
682927,640455,3,1,0,0,0,0,.333,.666
682927,453286,3,0,0,0,1,0,.000,.000
682927,669160,3,0,0,0,0,1,.000,.250
682927,656876,2,0,0,0,1,0,.000,.000
682927,605135,3,0,0,0,2,0,.000,.000
656811,669467,8,1,1,3,1,1,.125,.722
682927,676083,2,0,0,0,0,0,.000,.000
656811,669022,4,2,0,1,2,1,.500,1.100
656811,684007,5,1,0,0,0,0,.200,.400
656811,579328,2,1,0,0,0,0,.500,1.000
682927,671737,1,0,0,0,1,1,.000,.500
656811,663738,1,0,0,0,0,0,.000,.000
656811,640455,4,0,0,0,2,0,.000,.000
656811,453286,3,1,0,0,0,2,.333,1.000
656811,607536,6,0,0,0,2,0,.000,.000
656811,647336,5,2,0,0,1,1,.400,1.100
656811,554430,6,1,0,1,2,2,.167,.542
656811,605135,17,10,2,8,4,2,.588,1.691
656811,607259,3,0,0,0,1,0,.000,.000
656811,683000,1,1,0,0,0,0,1.000,2.000
656811,656876,4,2,1,3,0,1,.500,1.850
656811,669160,2,1,0,1,1,1,.500,1.167
656811,608331,2,0,0,0,1,0,.000,.000
656811,650633,8,1,1,2,3,1,.125,.722
656811,682227,2,1,1,3,0,1,.500,2.667
656811,664299,5,0,0,0,2,0,.000,.000
687462,647336,4,1,0,0,1,0,.250,1.000
656811,683627,2,1,0,0,0,0,.500,1.500
656811,683003,3,2,1,1,0,0,.667,3.000
656811,669302,7,4,1,3,1,1,.571,1.911
656811,676083,5,2,0,0,1,0,.400,.800
687462,669467,8,3,1,1,2,0,.375,1.125
656811,671737,16,5,1,1,2,2,.313,1.014
687462,554430,5,1,0,0,2,0,.200,.400
687462,684007,2,0,0,0,0,0,.000,.000
687462,650633,8,1,0,0,3,0,.125,.250
687462,607536,3,0,0,0,0,0,.000,.000
687462,453286,5,0,0,0,1,0,.000,.000
687462,607259,10,10,1,4,0,2,1.000,2.600
687462,656876,1,0,0,0,0,0,.000,.000
687462,605135,2,0,0,0,0,2,.000,.500
687462,683627,1,1,1,1,0,0,1.000,5.000
687462,676083,4,1,0,0,0,1,.250,.900
687462,607074,1,0,0,0,0,1,.000,.500
810938,579328,2,0,0,0,0,0,.000,.000
687462,669160,10,4,0,1,1,2,.400,.900
687462,671737,9,4,0,1,1,0,.444,1.000
810938,669022,4,1,0,0,3,0,.250,.650
810938,663738,2,0,0,0,0,0,.000,.000
810938,608331,5,0,0,0,2,0,.000,.000
810938,607259,2,1,0,1,0,0,.500,1.000
810938,800048,5,1,0,0,0,0,.200,.400
810938,671737,2,0,0,0,1,1,.000,.333
810938,641743,5,0,0,0,1,0,.000,.000
810938,682227,2,1,0,1,0,0,.500,1.000
656775,579328,20,3,0,1,8,0,.150,.400
810938,801139,5,3,0,2,0,0,.600,1.400
656775,647336,3,2,1,2,0,0,.667,2.667
656775,669467,1,1,1,4,0,0,1.000,5.000
656775,640455,3,0,0,0,1,0,.000,.000
656775,607536,3,1,0,0,0,0,.333,.666
810938,669302,3,3,0,1,0,0,1.000,2.333
656775,669620,1,0,0,0,0,0,.000,.000
656775,608331,10,1,1,1,2,0,.100,.500
656775,669022,7,2,0,1,2,2,.286,.730
656775,607074,3,0,0,0,2,0,.000,.000
656775,641743,8,2,1,1,4,1,.250,1.025
656775,656876,13,0,0,0,5,1,.000,.071
656775,663738,7,2,0,1,1,1,.286,.661
656775,453286,7,2,0,0,1,2,.286,.730
656775,607259,2,0,0,0,1,0,.000,.000
656775,669160,3,1,0,1,1,0,.333,1.000
802415,640455,3,1,0,0,1,0,.333,.666
656775,682227,1,0,0,0,1,0,.000,.000
656775,683627,1,0,0,0,0,0,.000,.000
656775,623454,1,0,0,0,0,1,.000,.500
656775,554430,8,2,0,0,1,0,.250,.875
656775,605135,10,4,1,2,2,1,.400,1.155
656775,671737,9,2,1,1,4,1,.222,.856
656775,683003,3,0,0,0,1,0,.000,.000
656775,664299,7,0,0,0,2,1,.000,.125
802415,669022,5,1,0,0,1,0,.200,.400
656775,650633,14,4,2,2,1,1,.286,1.190
656775,801139,5,2,0,1,0,0,.400,.800
802415,453286,3,1,0,1,0,0,.333,.666
656775,676083,6,3,1,1,0,0,.500,1.500
802415,554430,3,0,0,0,0,0,.000,.000
656775,800048,3,1,0,1,1,0,.333,.666
802415,641743,4,2,0,0,0,0,.500,1.000
656775,669302,5,0,0,0,0,0,.000,.000
802415,608331,6,1,0,0,1,0,.167,.334
802415,607074,2,1,0,1,0,1,.500,1.167
802415,669620,3,2,0,1,0,0,.667,1.667
802415,605135,11,5,0,2,0,0,.455,1.000
802415,800048,11,3,0,0,1,0,.273,.546
802415,650633,3,1,0,0,0,0,.333,.666
802415,607259,3,1,0,0,0,0,.333,1.000
802415,676083,4,2,0,0,0,0,.500,1.500
666018,608331,11,1,1,2,5,1,.091,.518
802415,669160,2,1,0,0,0,0,.500,1.000
802415,671737,3,0,0,1,0,1,.000,.250
802415,682227,1,1,0,1,0,0,1.000,1.500
666018,669022,5,2,0,1,2,0,.400,1.133
802415,669302,6,1,0,0,0,0,.167,.334
666018,453286,3,0,0,0,0,0,.000,.000
666018,669620,1,0,0,0,0,0,.000,.000
666018,554430,5,3,1,1,2,1,.600,2.067
802415,801139,6,0,0,0,1,0,.000,.000
666018,663738,3,1,0,0,1,0,.333,.666
666018,607074,2,0,0,0,2,2,.000,.500
666018,607259,3,1,0,1,1,0,.333,.666
666018,641743,3,1,0,0,1,0,.333,.666
666018,623454,1,0,0,0,0,0,.000,.000
666018,605135,13,2,0,0,4,1,.154,.368
666018,800048,3,0,0,0,1,0,.000,.000
666018,650633,2,1,0,0,1,0,.500,1.000
666018,682227,2,0,0,0,2,1,.000,.333
666018,676083,1,0,0,0,0,2,.000,.667
666018,669160,3,1,0,1,1,0,.333,1.000
676356,640455,4,0,0,0,1,0,.000,.000
666018,664299,6,0,0,0,4,0,.000,.000
676356,579328,7,1,0,0,2,0,.143,.286
676356,607074,4,0,0,0,3,0,.000,.000
666018,671737,3,2,2,2,1,0,.667,3.334
676356,663738,1,1,0,0,0,1,1.000,2.000
676356,669620,2,2,0,1,0,0,1.000,2.500
676356,669022,5,1,0,0,1,0,.200,.400
666018,669302,7,4,1,2,2,0,.571,1.857
676356,647336,1,0,0,0,0,1,.000,.500
676356,608331,6,2,0,3,1,0,.333,1.000
676356,605135,4,1,0,0,1,0,.250,.500
676356,607259,1,0,0,0,0,0,.000,.000
676356,607536,3,0,0,1,1,1,.000,.250
676356,669160,2,2,0,1,0,0,1.000,2.500
676356,641743,4,1,0,0,0,1,.250,.650
676356,664299,1,1,1,1,0,0,1.000,5.000
676356,671737,3,1,0,0,0,0,.333,.666
676356,800048,5,1,0,0,1,0,.200,.400
622761,640455,9,0,0,0,3,0,.000,.000
676356,801139,2,0,0,0,2,0,.000,.000
622761,669022,7,0,0,0,3,0,.000,.000
676356,682227,3,0,0,0,0,2,.000,.400
622761,579328,21,8,0,0,6,0,.381,.952
622761,647336,1,1,0,0,0,1,1.000,3.000
622761,663738,7,1,0,1,2,1,.143,.393
622761,669467,3,1,0,0,1,0,.333,.666
676356,669302,8,2,1,1,4,0,.250,1.000
622761,607259,1,0,0,0,1,0,.000,.000
622761,608331,10,2,1,3,4,0,.200,.700
622761,650633,7,0,0,0,2,0,.000,.000
622761,684007,3,0,0,0,1,0,.000,.000
622761,453286,3,1,0,0,2,0,.333,.666
622761,607536,6,2,1,2,1,0,.333,1.166
622761,669620,1,1,0,0,0,0,1.000,2.000
622761,641743,2,1,0,1,0,0,.500,1.000
622761,607074,7,4,1,1,2,0,.571,1.768
622761,605135,6,2,0,0,2,1,.333,.762
622761,800048,2,0,0,0,1,0,.000,.000
622761,669160,1,0,0,0,0,0,.000,.000
622761,656876,9,3,0,0,4,1,.333,.844
691406,579328,10,2,0,2,3,1,.200,.450
691406,669022,3,0,0,0,1,2,.000,.400
622761,664299,5,0,0,0,2,0,.000,.000
622761,669302,4,1,0,0,0,0,.250,.500
622761,683003,2,0,0,0,1,0,.000,.000
622761,671737,3,0,0,1,1,0,.000,.000
691406,554430,6,1,0,0,1,0,.167,.334
622761,801139,2,2,0,1,0,0,1.000,2.500
691406,641743,4,2,0,0,0,0,.500,1.000
691406,669620,3,1,0,0,1,0,.333,1.000
691406,640455,3,2,0,1,0,0,.667,1.334
691406,608331,12,1,0,0,1,0,.083,.250
691406,607536,2,0,0,0,0,0,.000,.000
691406,650633,2,0,0,0,1,0,.000,.000
691406,663738,1,1,0,0,0,0,1.000,3.000
691406,607074,5,1,0,0,1,1,.200,.533
691406,453286,3,1,0,1,0,0,.333,1.000
691406,605135,8,2,0,1,2,1,.250,.708
691406,684007,3,2,1,1,0,0,.667,2.334
691406,682227,3,1,1,1,0,0,.333,1.666
691406,800048,12,1,0,0,2,0,.083,.166
691406,607259,2,0,0,0,0,0,.000,.000
691406,669160,3,0,0,0,1,0,.000,.000
691406,671737,4,2,2,3,0,0,.500,2.500
691406,676083,3,0,0,0,1,0,.000,.000
689414,669467,4,0,0,0,1,1,.000,.200
691406,664299,1,0,0,0,1,0,.000,.000
691406,669302,6,2,0,0,3,4,.333,1.100
689414,608331,3,0,0,0,0,0,.000,.000
689414,453286,2,1,0,0,0,0,.500,1.000
691406,801139,6,2,1,1,2,0,.333,1.333
689414,554430,9,2,0,0,2,1,.222,.522
689414,702275,2,1,0,2,0,0,.500,1.667
689414,607536,3,2,0,0,0,0,.667,1.334
689414,669620,1,0,0,0,0,0,.000,.000
689414,640455,2,0,0,0,1,0,.000,.000
689414,605135,5,4,0,2,1,1,.800,1.633
689414,607259,4,1,0,0,0,2,.250,.750
689414,623454,1,0,0,0,0,0,.000,.000
689414,656876,11,2,0,0,1,1,.182,.523
663743,579328,7,2,0,0,1,0,.286,.572
689414,669160,2,0,0,0,0,0,.000,.000
689414,683627,1,1,0,2,0,0,1.000,2.000
689414,671737,2,0,0,0,1,0,.000,.000
689414,669302,4,1,0,0,0,0,.250,.500
663743,608331,15,3,0,0,1,2,.200,.561
663743,669022,11,4,0,3,1,0,.364,.909
663743,684007,2,1,0,0,1,0,.500,1.500
663743,607074,2,1,0,1,1,0,.500,1.000
663743,640455,7,5,2,3,0,0,.714,2.428
663743,800048,9,2,0,0,4,0,.222,.555
663743,554430,1,0,0,0,0,0,.000,.500
663743,669467,1,1,0,1,0,0,1.000,2.000
663743,669620,1,1,0,1,0,0,1.000,3.000
663743,641743,4,2,0,0,0,1,.500,1.100
663743,607536,10,0,0,0,2,0,.000,.000
663743,607259,3,0,0,0,0,0,.000,.250
663743,656876,2,0,0,0,0,0,.000,.000
680700,647336,1,0,0,0,1,1,.000,.500
663743,682227,3,0,0,0,0,0,.000,.250
663743,669160,2,0,0,0,2,0,.000,.000
663743,676083,2,0,0,0,1,0,.000,.000
663743,801139,5,3,0,1,0,0,.600,1.467
663743,669302,6,1,0,0,1,0,.167,.500
663743,671737,5,3,0,0,0,0,.600,1.400
680700,554430,2,0,0,0,1,0,.000,.000
680700,453286,2,1,0,2,0,0,.500,1.500
680700,623454,1,0,0,0,0,0,.000,.000
680700,607259,3,0,0,0,1,0,.000,.000
680700,682227,2,1,1,2,0,0,.500,2.500
680700,669620,1,0,0,0,1,0,.000,.000
680700,800048,2,0,0,0,0,0,.000,.000
680700,676083,3,2,0,0,1,0,.667,1.667
680700,664299,1,1,0,0,0,0,1.000,2.000
680700,669160,2,0,0,0,0,0,.000,.000
680700,605135,9,3,1,3,0,2,.333,1.233
680700,650633,1,0,0,0,1,0,.000,.000
680700,669302,4,0,0,0,1,1,.000,.200
680700,801139,3,1,0,1,1,0,.333,.666
668723,640455,4,2,0,1,0,0,.500,1.500
668723,608331,4,1,0,0,0,0,.250,.500
668723,453286,2,0,0,0,1,0,.000,.000
668723,663738,1,0,0,0,0,0,.000,.000
668723,669022,4,1,1,2,2,1,.250,1.400
668723,579328,2,1,0,0,0,0,.500,1.000
668723,669620,2,1,0,1,0,0,.500,1.000
680700,683003,2,1,0,0,0,0,.500,1.000
668723,800048,7,3,0,1,3,0,.429,.858
668723,682227,2,2,0,1,0,1,1.000,2.000
668723,801139,5,3,0,0,1,0,.600,1.400
668723,605135,3,0,0,0,1,0,.000,.000
668723,664299,1,0,0,0,1,0,.000,.000
668723,641743,4,2,0,0,0,0,.500,1.000
670764,608331,7,2,0,1,1,0,.286,.715
670764,669620,1,1,1,1,0,0,1.000,5.000
670764,669022,2,0,0,0,1,0,.000,.000
670764,663738,5,1,0,0,2,0,.200,.400
670764,579328,18,3,1,3,7,1,.167,.600
670764,607074,4,0,0,0,1,0,.000,.000
670764,607536,2,0,0,0,0,0,.000,.000
670764,641743,2,1,0,1,0,0,.500,1.000
670764,453286,1,0,0,1,0,0,.000,.000
670764,640455,1,0,0,1,0,0,.000,.000
670764,554430,4,1,0,1,1,0,.250,.500
670764,607259,2,1,0,1,0,0,.500,1.500
670764,800048,3,0,0,0,3,0,.000,.000
670764,682227,2,0,0,0,0,0,.000,.000
670764,664299,2,0,0,0,1,1,.000,.333
670764,676083,3,1,0,3,1,0,.333,1.000
670764,650633,5,0,0,0,1,0,.000,.000
670764,801139,1,0,0,0,0,0,.000,.000
670764,605135,4,0,0,0,1,2,.000,.333
683748,669022,2,2,0,1,0,0,1.000,2.500
670764,669302,7,1,0,0,4,2,.143,.476
670764,671737,2,0,0,0,1,0,.000,.000
670764,683003,3,0,0,0,1,0,.000,.000
683748,640455,3,2,0,0,0,0,.667,1.334
683748,669620,3,1,0,0,0,0,.333,.666
683748,664299,1,0,0,0,1,0,.000,.000
683748,669302,3,1,0,0,1,0,.333,1.000
683748,605135,3,1,0,1,0,0,.333,.666
650490,669022,6,3,1,2,0,0,.500,1.500
650490,579328,28,8,1,3,7,6,.286,.876
650490,647336,4,0,0,0,1,2,.000,.333
650490,640455,9,2,1,1,1,3,.222,1.084
650490,607074,15,4,1,3,4,1,.267,.780
650490,608331,17,4,0,1,3,1,.235,.551
650490,669467,1,1,0,1,0,0,1.000,2.000
650490,669620,3,0,0,0,0,0,.000,.000
650490,663738,3,3,0,0,0,0,1.000,2.000
650490,453286,1,1,1,2,0,1,1.000,5.000
650490,650633,10,2,0,2,5,1,.200,.450
650490,607259,6,0,0,0,1,0,.000,.000
650490,607536,5,1,0,0,2,1,.200,.533
650490,684007,3,1,1,1,1,0,.333,1.666
650490,800048,11,3,0,0,2,2,.273,.749
650490,682227,3,2,0,1,1,0,.667,1.334
650490,605135,19,2,0,0,4,2,.105,.295
650490,641743,7,0,0,0,0,4,.000,.364
650490,623454,1,0,0,0,1,0,.000,.000
650490,554430,8,4,1,3,1,1,.500,1.431
650490,669160,3,3,0,2,0,0,1.000,2.333
650490,671737,3,1,0,0,0,0,.333,.666
643217,663738,2,0,0,0,1,0,.000,.000
650490,669302,17,4,0,1,1,2,.235,.610
650490,801139,5,2,0,0,0,1,.400,.900
643217,647336,4,2,0,0,1,0,.500,1.000
650490,664299,3,0,0,0,1,0,.000,.000
650490,676083,2,1,1,2,0,1,.500,2.667
643217,554430,6,2,0,0,2,0,.333,.833
650490,683003,4,0,0,0,1,0,.000,.000
643217,669467,3,1,0,0,0,0,.333,1.000
643217,684007,2,1,0,1,1,0,.500,1.000
643217,607536,9,3,1,3,4,0,.333,1.000
643217,453286,9,4,0,2,4,0,.444,1.056
643217,640455,12,4,0,2,1,2,.333,.762
643217,607259,10,5,2,4,1,0,.500,1.600
643217,579328,16,4,0,0,5,1,.250,.607
643217,656876,6,3,0,1,3,1,.500,1.071
643217,800048,2,0,0,0,1,0,.000,.000
643217,650633,4,1,0,0,2,0,.250,.500
643217,669160,3,0,0,0,1,0,.000,.000
643217,605135,19,5,1,1,4,1,.263,.721
643217,683627,1,0,0,0,1,0,.000,.000
643217,669620,3,1,0,0,0,0,.333,.666
643217,623454,2,0,0,0,0,1,.000,.333
643217,607074,16,1,0,0,3,1,.063,.181
643217,641743,2,1,0,1,0,0,.500,1.500
695731,663738,1,1,0,0,0,0,1.000,2.000
695731,669022,2,1,0,1,0,0,.500,1.500
643217,669302,16,5,0,3,4,0,.313,.876
643217,671737,9,3,0,0,1,2,.333,.788
643217,676083,4,2,0,1,0,0,.500,1.000
643217,664299,5,1,0,0,0,2,.200,.829
643217,683003,3,0,0,0,1,0,.000,.000
695731,608331,2,1,0,1,0,0,.500,2.000
695731,607074,2,0,0,0,1,0,.000,.000
695731,607259,3,0,0,0,0,0,.000,.000
695731,684007,3,0,0,0,1,0,.000,.000
695731,623454,2,1,0,0,1,0,.500,1.000
695731,656876,2,1,0,0,1,0,.500,1.000
695731,800048,6,2,1,1,4,2,.333,1.333
695731,671737,2,0,0,0,0,0,.000,.000
695731,683003,3,0,0,0,0,0,.000,.000
686668,663738,2,1,0,1,1,0,.500,.833
686668,579328,2,0,0,0,2,0,.000,.000
686668,554430,3,0,0,0,1,0,.000,.000
686668,684007,5,0,0,0,2,0,.000,.000
686668,669467,4,2,0,0,2,0,.500,1.000
686668,669022,2,1,0,1,1,1,.500,1.167
686668,647336,4,0,0,0,1,0,.000,.000
686668,650633,4,2,1,1,1,2,.500,1.917
686668,453286,1,1,0,0,0,1,1.000,2.000
686668,608331,6,2,0,0,2,0,.333,.666
686668,800048,6,1,0,0,3,0,.167,.334
686668,640455,10,0,0,0,4,1,.000,.091
686668,607259,4,0,0,0,1,0,.000,.000
686668,682227,5,2,0,0,1,1,.400,1.100
686668,676083,1,0,0,1,0,0,.000,.000
686668,607074,5,1,0,2,1,0,.200,.600
686668,683003,3,0,0,0,3,0,.000,.000
686668,671737,3,1,0,0,0,0,.333,.666
805367,647336,2,1,0,0,1,0,.500,1.000
805367,663738,4,1,0,0,1,0,.250,.500
805367,607259,2,0,0,0,0,0,.000,.000
805367,669022,1,1,0,0,0,1,1.000,3.000
805367,640455,3,0,0,0,0,0,.000,.000
805367,608331,4,0,0,1,1,0,.000,.000
805367,650633,4,1,0,0,1,1,.250,.750
805367,607074,8,4,0,1,1,1,.500,1.181
805367,605135,3,1,0,0,0,0,.333,.666
805367,800048,15,4,0,0,3,0,.267,.600
805367,684007,6,2,1,1,3,0,.333,1.166
695657,663738,3,1,0,0,0,0,.333,.833
805367,623454,4,1,0,0,1,0,.250,.500
805367,669302,2,0,0,0,1,0,.000,.000
805367,683000,1,0,0,0,1,0,.000,.000
805367,656876,4,1,0,1,0,0,.250,.500
805367,671737,10,4,0,1,1,1,.400,1.055
805367,669160,3,0,0,0,1,0,.000,.000
805367,801139,2,0,0,0,0,0,.000,.000
805367,683003,1,0,0,0,1,1,.000,.500
695657,647336,3,2,0,0,0,0,.667,1.334
695657,640455,3,1,1,1,1,0,.333,1.666
695657,579328,1,0,0,0,0,0,.000,.000
805367,676083,3,0,0,0,2,0,.000,.000
695657,650633,5,1,0,0,1,1,.200,.533
695657,607074,8,3,1,3,1,1,.375,1.319
695657,800048,10,2,0,2,5,0,.200,.573
695657,684007,2,1,1,1,0,0,.500,2.500
695657,607259,3,1,1,2,2,0,.333,1.666
695657,608331,4,3,0,1,0,1,.750,1.800
695657,623454,3,2,1,1,1,0,.667,2.334
695657,656876,5,0,0,0,2,0,.000,.000
695657,605135,2,1,0,0,0,0,.500,1.000
695657,671737,10,3,3,7,4,1,.300,1.533
695657,801139,3,0,0,0,0,0,.000,.000
695657,676083,2,0,0,0,2,0,.000,.000
695657,669302,3,0,0,0,2,1,.000,.250
668670,640455,5,0,0,0,2,0,.000,.000
695657,683003,3,1,0,0,1,0,.333,1.000
668670,663738,7,2,0,0,1,0,.286,.715
668670,669022,2,1,0,0,1,0,.500,1.000
668670,684007,1,0,0,0,1,1,.000,.500
668670,608331,2,0,0,0,2,0,.000,.000
668670,579328,7,2,1,3,2,1,.286,1.190
668670,607074,4,1,0,0,2,2,.250,.750
668670,682227,2,1,0,0,1,0,.500,1.000
668670,607259,4,3,1,1,0,1,.750,2.550
668670,605135,5,1,0,0,3,0,.200,.400
668670,683627,1,0,0,0,1,0,.000,.000
668670,671737,2,0,0,0,1,0,.000,.000
691019,663738,2,1,0,1,0,0,.500,1.000
668670,664299,2,1,0,0,0,0,.500,1.000
668670,683003,3,0,0,0,2,1,.000,.250
668670,669302,4,1,0,0,1,0,.250,.750
691019,800048,3,0,0,0,2,0,.000,.000
691019,605135,2,0,0,0,1,2,.000,.500
691019,669160,2,0,0,0,2,1,.000,.333
691019,607074,2,0,0,0,2,0,.000,.333
691019,650633,1,0,0,0,1,2,.000,.667
682668,663738,1,0,0,0,0,0,.000,.000
682668,640455,3,0,0,0,1,0,.000,.000
682668,669022,2,2,0,0,0,0,1.000,2.500
682668,669467,2,0,0,0,0,0,.000,.000
682668,579328,1,0,0,0,0,0,.000,.000
691019,671737,7,5,0,3,0,0,.714,1.571
691019,801139,2,0,0,0,1,0,.000,.000
682668,607536,2,0,0,0,0,0,.000,.000
682668,554430,3,1,0,0,0,0,.333,.666
682668,608331,2,0,0,0,0,0,.000,.000
682668,607074,4,0,0,0,3,0,.000,.000
682668,607259,1,1,0,0,0,0,1.000,2.000
682668,623454,1,0,0,0,1,0,.000,.000
682668,684007,4,0,0,0,2,0,.000,.000
682668,676083,2,1,0,0,0,0,.500,1.000
682668,800048,10,1,0,0,4,0,.100,.200
678246,663738,8,3,0,1,0,1,.375,.944
678246,647336,2,1,0,1,0,1,.500,1.167
678246,669467,1,0,0,0,0,0,.000,.000
678246,669022,1,1,0,1,0,2,1.000,2.000
682668,801139,2,0,0,0,1,0,.000,.000
678246,607536,5,0,0,0,3,1,.000,.167
678246,579328,4,1,0,2,2,0,.250,.750
678246,640455,12,3,1,3,3,1,.250,.869
678246,453286,1,0,0,0,0,0,.000,.000
678246,684007,4,2,0,0,0,1,.500,1.100
678246,554430,2,0,0,0,1,0,.000,.000
678246,656876,4,0,0,0,3,1,.000,.200
678246,607259,9,2,1,1,0,0,.222,.778
678246,605135,4,1,0,0,1,0,.250,.500
678246,669620,2,1,0,0,0,0,.500,1.000
678246,683000,1,1,0,0,0,0,1.000,2.000
678246,607074,5,2,0,0,1,1,.400,1.100
678246,676083,2,1,0,0,0,0,.500,1.500
678246,669160,3,0,0,0,0,0,.000,.000
678246,608331,4,1,0,0,3,1,.250,.650
678246,682227,3,2,1,2,0,0,.667,2.667
678246,671737,7,3,0,1,1,3,.429,1.029
678246,800048,14,2,1,1,3,1,.143,.557
808959,663738,1,0,0,0,1,0,.000,.000
678246,623454,5,1,1,2,2,0,.200,1.000
678246,650633,7,2,0,2,2,0,.286,.572
808959,579328,1,0,0,0,0,0,.000,.000
678246,683003,2,0,0,0,1,1,.000,.333
678246,801139,2,0,0,0,1,1,.000,.333
678246,669302,2,1,0,0,0,0,.500,1.500
808959,640455,2,0,0,0,0,1,.000,.333
808959,669022,2,0,0,0,1,1,.000,.333
808959,608331,1,1,0,0,0,1,1.000,2.000
678246,683627,1,0,0,0,0,0,.000,.000
808959,607259,3,2,1,2,0,0,.667,2.334
808959,684007,2,0,0,0,1,1,.000,.333
808959,650633,3,0,0,0,1,0,.000,.000
808959,647336,3,1,0,0,2,0,.333,.666
808959,800048,4,1,1,1,1,0,.250,1.250
808959,623454,3,0,0,0,2,0,.000,.000
808959,656876,3,1,0,0,2,0,.333,.666
808959,683000,1,0,0,0,0,0,.000,.000
808959,676083,2,1,0,1,0,0,.500,1.000
808959,671737,3,1,1,2,2,0,.333,1.666
545341,663738,9,1,0,1,0,2,.111,.384
545341,669467,2,0,0,0,1,0,.000,.000
808959,669302,2,0,0,0,1,0,.000,.000
545341,579328,19,5,1,3,3,2,.263,.754
808959,683003,3,0,0,0,1,0,.000,.000
545341,669022,11,5,1,6,1,1,.455,1.409
545341,684007,8,3,1,3,3,1,.375,1.319
545341,453286,16,2,0,0,7,0,.125,.301
545341,647336,11,3,1,2,2,1,.273,.944
545341,607536,4,0,0,1,2,0,.000,.000
545341,623454,1,1,0,0,0,0,1.000,3.000
545341,554430,12,1,0,0,7,0,.083,.166
545341,656876,3,0,0,0,1,0,.000,.000
545341,682227,5,1,0,0,0,0,.200,.400
545341,650633,10,2,0,1,3,1,.200,.473
545341,640455,22,8,3,3,1,2,.364,1.326
545341,605135,8,4,0,1,1,0,.500,1.056
545341,800048,12,5,0,0,1,0,.417,1.167
545341,607259,7,2,0,0,1,0,.286,.572
545341,607074,22,5,1,1,10,2,.227,.701
545341,608331,18,6,0,1,4,1,.333,.812
545341,664299,2,1,0,2,0,1,.500,1.667
545341,801139,5,0,0,0,3,0,.000,.000
803011,579328,1,0,0,0,0,0,.000,.000
545341,669302,7,1,1,2,1,0,.143,.714
803011,647336,2,0,0,0,0,0,.000,.000
545341,671737,2,0,0,0,1,0,.000,.000
803011,684007,1,0,0,0,1,0,.000,.500
803011,656876,2,0,0,0,1,1,.000,.333
803011,650633,3,2,0,0,0,0,.667,1.667
803011,607074,2,0,0,0,1,0,.000,.000
803011,800048,3,0,0,0,0,0,.000,.000
803011,623454,4,0,0,1,1,0,.000,.000
803011,607259,3,1,0,0,0,0,.333,.666
502054,669022,12,3,0,0,6,1,.250,.558
502054,663738,3,0,0,0,2,0,.000,.000
502054,554430,11,5,1,2,2,4,.455,1.327
803011,683003,3,0,0,0,1,0,.000,.000
502054,640455,14,7,2,4,2,0,.500,1.571
502054,647336,1,0,0,0,1,0,.000,.000
803011,669302,3,0,0,0,2,0,.000,.000
502054,641743,3,1,0,0,1,0,.333,.666
502054,650633,1,0,0,0,1,0,.000,.000
502054,684007,7,3,1,1,0,1,.429,1.357
803011,801139,2,2,0,0,0,0,1.000,2.000
502054,669620,1,0,0,0,0,0,.000,.000
502054,579328,8,3,2,2,3,2,.375,1.625
502054,453286,26,3,0,1,12,1,.115,.302
803011,671737,3,2,0,0,0,3,.667,1.500
502054,669467,7,1,0,0,2,1,.143,.393
502054,607259,7,1,0,1,4,2,.143,.586
502054,607074,14,2,0,1,5,3,.143,.421
502054,605135,10,3,0,2,4,1,.300,.764
502054,656876,4,0,0,0,2,1,.000,.200
502054,608331,17,2,0,1,4,2,.118,.329
502054,669160,10,3,0,2,1,1,.300,.664
502054,607536,28,8,1,2,7,2,.286,.762
502054,800048,3,1,1,3,1,0,.333,1.666
502054,683003,3,1,0,0,2,0,.333,1.333
502054,683627,1,1,1,2,0,0,1.000,5.000
502054,682227,3,1,0,0,1,0,.333,.666
502054,671737,2,0,0,0,1,0,.000,.000
502054,664299,5,1,0,0,1,3,.200,.700
502054,801139,1,0,0,0,0,1,.000,.500
671976,669022,2,1,0,0,0,0,.500,1.500
671976,640455,2,0,0,0,1,0,.000,.000
671976,647336,2,1,0,0,0,0,.500,1.000
671976,650633,1,1,0,0,0,1,1.000,2.000
671976,607259,2,0,0,0,0,0,.000,.000
671976,683000,2,1,0,0,0,0,.500,1.000
671976,623454,3,2,0,1,0,1,.667,1.750
671976,683003,2,0,0,0,1,0,.000,.000
671976,676083,2,0,0,0,1,0,.000,.000
645305,647336,1,0,0,0,0,0,.000,.000
671976,656876,2,0,0,0,0,0,.000,.000
671976,800048,3,0,0,0,0,1,.000,.250
671976,671737,5,1,0,1,2,0,.200,.600
645305,640455,3,0,0,0,0,0,.000,.000
671976,801139,2,0,0,0,1,0,.000,.000
671976,669302,2,0,0,0,1,0,.000,.000
645305,608331,1,0,0,1,0,1,.000,.500
645305,607259,1,0,0,0,0,0,.000,.000
645305,641743,2,1,0,1,0,0,.500,1.000
645305,684007,5,1,0,0,0,0,.200,.400
645305,800048,2,0,0,0,2,0,.000,.000
645305,554430,2,2,0,0,0,0,1.000,2.000
645305,671737,1,0,0,0,1,1,.000,.500
645305,801139,2,0,0,0,0,0,.000,.000
645305,669302,2,1,0,0,0,0,.500,1.000
642708,647336,16,5,0,0,2,1,.313,.728
642708,579328,7,2,0,1,1,0,.286,.572
642708,607259,5,0,0,0,1,0,.000,.000
642708,554430,3,1,0,0,0,0,.333,.666
642708,663738,14,7,0,1,0,0,.500,1.357
642708,669467,5,1,1,1,1,0,.200,1.000
642708,669022,10,3,0,0,1,0,.300,.600
642708,640455,10,4,0,2,2,0,.400,.864
642708,453286,20,5,1,1,8,0,.250,.700
642708,650633,3,1,0,0,0,1,.333,.833
642708,607536,8,3,0,0,1,0,.375,.875
642708,656876,2,0,0,1,0,0,.000,.000
642708,684007,3,1,1,1,2,0,.333,1.666
642708,608331,22,9,0,4,7,0,.409,.936
642708,607074,16,4,1,1,6,1,.250,.732
642708,800048,3,1,0,0,1,0,.333,.666
642708,623454,4,2,2,3,1,0,.500,2.500
642708,676083,2,0,0,0,1,0,.000,.000
642708,682227,3,1,0,0,0,0,.333,1.000
642708,605135,10,3,0,0,2,0,.300,.700
642708,664299,9,2,0,1,2,1,.222,.633
642708,669160,1,0,0,0,1,0,.000,.000
642708,669302,14,7,0,1,1,1,.500,1.319
683011,640455,6,1,0,3,1,1,.167,.453
642708,801139,6,1,0,0,2,0,.167,.334
642708,641743,7,1,0,0,2,0,.143,.429
683011,684007,4,0,0,0,1,0,.000,.000
683011,554430,5,1,0,0,3,0,.200,.400
683011,579328,15,3,0,1,6,0,.200,.388
683011,647336,2,1,0,0,1,0,.500,1.500
683011,663738,5,1,0,0,1,0,.200,.400
683011,607259,3,0,0,0,0,0,.000,.000
683011,607536,6,2,0,1,1,0,.333,.666
683011,608331,5,2,0,1,0,0,.400,1.200
683011,656876,11,0,0,0,7,1,.000,.083
683011,669022,7,1,0,0,1,0,.143,.286
683011,669467,2,0,0,0,1,0,.000,.000
683011,453286,8,2,0,1,3,0,.250,.750
683011,650633,2,0,0,0,1,0,.000,.000
683011,641743,4,2,0,2,0,0,.500,1.750
683011,605135,19,4,1,2,8,0,.211,.618
683011,800048,2,0,0,0,0,0,.000,.000
683011,623454,1,1,0,0,0,0,1.000,2.000
669224,579328,1,0,0,0,0,1,.000,.500
683011,676083,3,2,0,0,0,0,.667,1.334
683011,671737,7,0,0,0,3,1,.000,.125
683011,801139,2,0,0,0,2,0,.000,.000
683011,683003,2,0,0,0,1,0,.000,.000
669224,669022,4,0,0,0,2,0,.000,.200
669224,663738,3,0,0,0,1,0,.000,.000
683011,669302,8,2,1,3,2,0,.250,.958
669224,669467,2,1,0,0,0,0,.500,1.000
669224,453286,4,0,0,0,2,0,.000,.000
683011,664299,7,1,0,0,1,1,.143,.393
669224,640455,1,0,0,0,0,2,.000,.750
669224,554430,3,1,0,3,2,1,.333,1.400
669224,607259,5,2,2,2,1,0,.400,2.000
669224,656876,7,1,1,1,0,0,.143,.714
669224,607536,1,1,0,0,0,1,1.000,2.000
669224,684007,2,1,0,0,0,0,.500,1.000
669224,650633,3,0,0,0,1,1,.000,.250
669224,641743,2,0,0,0,0,0,.000,.000
669224,801139,2,0,0,0,0,0,.000,.000
669224,605135,14,3,0,1,3,0,.214,.557
669224,669160,2,0,0,0,1,0,.000,.000
669224,669302,1,0,0,0,0,1,.000,.500
669224,664299,5,0,0,0,2,1,.000,.167
669224,671737,3,0,0,0,2,0,.000,.000
669224,676083,2,0,0,0,0,0,.000,.000
700250,640455,4,0,0,0,2,0,.000,.000
700250,607259,7,3,0,2,1,1,.429,1.214
700250,684007,3,1,0,0,1,0,.333,.666
700250,669467,5,2,0,0,2,1,.400,1.100
700250,453286,6,1,1,3,0,0,.167,.834
700250,554430,5,2,1,1,1,0,.400,1.400
700250,663738,1,0,0,0,0,0,.000,.000
700250,608331,2,1,0,0,1,0,.500,1.000
700250,656876,13,1,1,2,5,0,.077,.385
700250,650633,5,1,0,0,0,1,.200,.733
700250,607536,3,1,0,0,1,0,.333,.666
700250,683627,1,0,0,0,1,0,.000,.000
700250,641743,5,1,0,0,2,1,.200,.533
700250,800048,3,0,0,0,1,0,.000,.000
700250,623454,2,0,0,0,1,0,.000,.000
700250,605135,18,6,1,1,6,0,.333,.889
700250,669160,2,0,0,0,0,1,.000,.333
700250,669302,3,1,0,1,1,3,.333,1.334
700250,801139,3,1,0,0,1,0,.333,.666
641355,647336,3,2,1,1,0,0,.667,2.667
700250,664299,3,1,0,0,0,0,.333,.666
700250,671737,9,5,0,0,0,0,.556,1.445
641355,453286,21,6,1,2,10,1,.286,.889
641355,663738,1,0,0,0,1,0,.000,.000
641355,579328,6,1,0,1,1,2,.167,.542
641355,684007,3,0,0,0,0,0,.000,.000
641355,669467,11,1,0,0,2,0,.091,.182
641355,607259,14,4,0,0,2,0,.286,.643
641355,669620,2,0,0,1,0,0,.000,.000
641355,608331,19,6,1,4,5,0,.316,.824
641355,640455,17,6,3,6,4,0,.353,1.294
641355,607074,9,1,1,1,2,1,.111,.644
641355,669022,11,4,0,1,3,3,.364,1.136
641355,650633,6,0,0,0,0,1,.000,.143
641355,554430,17,7,5,10,5,2,.412,1.945
641355,607536,34,12,1,6,2,2,.353,.986
641355,656876,15,4,0,0,1,1,.267,.580
641355,669302,7,5,0,1,2,1,.714,1.381
641355,800048,2,0,0,0,0,1,.000,.333
641355,676083,3,1,0,2,0,0,.333,.666
641355,682227,1,0,0,0,0,1,.000,.500
641355,623454,2,0,0,0,1,0,.000,.000
641355,669160,4,0,0,0,1,0,.000,.000
641355,664299,6,1,0,1,3,0,.167,.334
641355,683003,11,4,1,2,1,0,.364,1.182
641355,671737,12,3,1,4,2,0,.250,.750
641355,605135,16,3,1,3,3,4,.188,.725
641355,641743,2,2,1,2,0,0,1.000,4.000
641355,801139,3,0,0,0,0,0,.000,.000
641355,683627,1,1,1,2,0,0,1.000,5.000
806146,669467,2,1,0,0,0,0,.500,1.000
806146,605135,1,0,0,1,1,0,.000,.000
806146,650633,2,1,0,0,0,0,.500,1.500
671218,607259,7,1,1,1,3,0,.143,.714
671218,663738,2,1,0,0,1,0,.500,1.000
671218,684007,6,0,0,0,1,0,.000,.000
806146,669302,2,0,0,0,0,0,.000,.000
671218,640455,5,1,0,0,0,2,.200,.829
671218,669022,9,3,1,1,3,0,.333,1.000
671218,647336,3,0,0,1,1,0,.000,.000
671218,579328,5,3,1,1,1,1,.600,2.067
671218,554430,2,0,0,0,1,0,.000,.000
671218,650633,5,1,0,0,2,0,.200,.400
671218,605135,10,4,0,2,3,1,.400,.855
671218,607536,19,7,1,1,3,0,.368,1.052
671218,669160,6,0,0,0,0,0,.000,.143
671218,669467,10,3,1,3,1,0,.300,1.000
671218,607074,3,0,0,0,3,0,.000,.000
671218,608331,10,1,0,0,4,1,.100,.282
671218,683627,2,0,0,0,1,1,.000,.333
671218,669302,3,1,0,1,1,0,.333,.666
676609,663738,2,1,0,0,0,0,.500,1.000
671218,676083,4,0,0,0,2,0,.000,.000
671218,683003,3,0,0,0,2,0,.000,.000
676609,669467,2,1,0,0,1,0,.500,1.000
676609,579328,13,5,2,6,4,0,.385,1.308
676609,684007,2,1,0,0,0,0,.500,1.000
676609,647336,2,0,0,0,0,0,.000,.000
676609,656876,6,1,0,1,2,0,.167,.334
676609,607259,7,2,0,0,1,1,.286,.661
676609,608331,7,1,0,0,0,2,.143,.476
676609,607074,6,1,0,0,4,1,.167,.619
676609,623454,2,1,0,0,1,0,.500,1.000
676609,641743,1,0,0,0,0,0,.000,.500
676609,605135,3,1,0,0,0,1,.333,1.267
676609,801139,4,0,0,0,2,1,.000,.200
676609,800048,2,1,0,1,0,0,.500,.833
676609,650633,2,0,0,0,1,0,.000,.000
676609,671737,3,0,0,0,3,1,.000,.250
676609,669160,1,0,0,1,0,0,.000,.000
676609,683003,3,1,0,0,0,0,.333,.666
671277,607259,7,2,0,1,2,0,.286,.536
676609,669302,6,0,0,0,2,0,.000,.000
671277,640455,5,2,0,0,2,0,.400,.800
671277,647336,3,0,0,0,0,0,.000,.000
671277,663738,6,0,0,0,0,0,.000,.000
671277,650633,6,2,0,0,1,0,.333,.666
671277,641743,1,0,0,0,0,0,.000,.000
671277,669467,12,2,0,1,1,3,.167,.583
671277,607536,11,2,0,0,2,0,.182,.364
671277,554430,37,8,2,4,7,0,.216,.669
671277,607074,3,0,0,0,1,0,.000,.000
671277,453286,13,8,2,4,1,0,.615,1.846
671277,608331,18,4,0,1,4,0,.222,.444
671277,702275,3,0,0,0,1,0,.000,.000
671277,656876,3,0,0,0,0,0,.000,.000
671277,669160,6,2,1,1,1,0,.333,1.166
671277,671737,2,0,0,0,1,0,.000,.000
671277,683627,1,1,1,2,0,0,1.000,5.000
671277,683003,3,0,0,0,2,0,.000,.000
671277,664299,4,1,0,0,0,0,.250,.500
671277,605135,9,3,0,0,0,0,.333,.666
671277,676083,7,4,1,1,0,1,.571,1.625
671277,669302,8,4,0,0,1,0,.500,1.125
680474,669022,6,0,0,0,1,0,.000,.000
680474,663738,1,0,0,0,0,0,.000,.000
680474,650633,2,0,0,0,2,0,.000,.000
680474,607074,2,0,0,0,1,0,.000,.000
680474,656876,4,1,0,0,1,0,.250,.750
680474,605135,4,1,0,0,0,1,.250,.650
680474,684007,2,0,0,0,1,0,.000,.000
680474,641743,2,1,0,2,0,0,.500,1.500
680474,664299,2,1,0,0,0,0,.500,1.000
502671,579328,4,2,0,0,1,2,.500,1.667
502671,669022,13,4,0,0,1,1,.308,.972
502671,647336,5,2,0,1,2,2,.400,.971
502671,663738,5,1,0,0,2,0,.200,.600
502671,453286,40,7,0,0,18,1,.175,.370
502671,640455,8,1,0,2,1,1,.125,.675
680474,669302,4,0,0,0,0,0,.000,.000
502671,554430,29,5,0,0,5,2,.172,.433
502671,608331,12,3,0,1,4,0,.250,.583
502671,607536,33,10,2,5,5,7,.303,.970
502671,641743,5,0,0,0,1,1,.000,.167
502671,684007,13,3,1,1,2,0,.231,.769
502671,607074,5,3,1,3,1,0,.600,2.267
502671,669160,5,2,0,0,0,1,.400,1.300
502671,683627,1,0,0,0,0,0,.000,.000
502671,623454,2,0,0,0,1,0,.000,.000
502671,656876,9,2,0,0,4,2,.222,.586
502671,650633,3,2,0,1,1,1,.667,1.750
502671,605135,9,4,1,2,1,1,.444,1.389
502671,607259,10,2,0,0,2,4,.200,.629
502671,800048,2,0,0,0,0,1,.000,.333
502671,682227,7,1,0,0,2,1,.143,.393
502671,676083,2,0,0,0,2,0,.000,.000
502671,683003,2,1,0,0,1,0,.500,1.000
502671,664299,3,2,1,2,0,0,.667,2.334
502671,801139,3,0,0,0,1,0,.000,.000
641857,453286,14,2,1,2,9,1,.143,.557
641857,647336,3,1,0,0,2,2,.333,1.267
641857,669022,7,2,1,2,5,3,.286,1.312
502671,669302,6,2,0,0,1,0,.333,.833
641857,579328,5,0,0,0,1,0,.000,.000
641857,640455,10,2,0,1,2,1,.200,.573
502671,671737,6,3,0,0,0,2,.500,1.292
641857,663738,6,2,0,1,1,3,.333,.889
641857,669467,9,2,1,1,3,3,.222,1.084
641857,607259,22,5,0,2,9,2,.227,.507
641857,684007,2,0,0,0,2,0,.000,.000
641857,608331,7,0,0,0,4,2,.000,.222
641857,650633,11,2,0,0,4,1,.182,.432
641857,607074,8,1,0,0,2,0,.125,.250
641857,656876,8,1,0,2,6,1,.125,.472
641857,554430,11,4,0,2,4,2,.364,1.045
641857,676083,4,0,0,0,1,0,.000,.000
641857,682227,3,1,0,0,1,0,.333,.666
641857,605135,6,2,0,1,2,2,.333,.833
641857,669160,8,1,0,0,3,0,.125,.472
641857,623454,1,0,0,0,1,0,.000,.000
641857,664299,5,3,2,4,0,0,.600,2.400
641857,683003,6,1,0,0,4,0,.167,.500
641857,669302,4,0,0,0,2,0,.000,.000
641857,671737,5,0,0,0,3,0,.000,.000
682987,669467,2,0,0,0,1,0,.000,.000
682987,650633,2,0,0,0,1,1,.000,.333
682987,623454,2,1,0,0,0,0,.500,1.000
682987,684007,2,1,1,1,1,0,.500,2.500
682987,605135,3,1,0,0,2,0,.333,.666
682987,669302,3,0,0,0,2,0,.000,.000
682987,801139,2,1,0,0,0,0,.500,1.000
675961,663738,1,0,0,0,0,0,.000,.000
675961,669022,7,4,0,0,2,0,.571,1.285
675961,607536,3,3,0,1,0,0,1.000,2.667
675961,669467,1,1,0,0,0,1,1.000,2.000
675961,684007,3,0,0,0,1,1,.000,.250
675961,554430,2,0,0,0,1,0,.000,.000
675961,608331,2,0,0,1,1,0,.000,.000
675961,607259,3,1,0,0,1,0,.333,.666
675961,650633,2,1,0,1,1,0,.500,1.000
675961,607074,3,0,0,0,2,0,.000,.000
675961,683000,1,0,0,0,1,0,.000,.000
675961,669302,1,1,1,1,0,1,1.000,5.000
675961,605135,3,1,0,0,1,0,.333,.666
675961,656876,2,0,0,0,0,0,.000,.000
661531,669022,4,2,0,0,1,1,.500,1.350
675961,671737,3,1,0,0,0,0,.333,1.000
661531,640455,2,0,0,0,0,1,.000,.333
675961,801139,2,1,0,0,1,0,.500,1.000
675961,682227,2,1,0,1,1,0,.500,1.000
661531,453286,2,0,0,1,2,0,.000,.000
661531,669467,1,0,0,0,0,0,.000,.000
661531,607074,2,0,0,0,2,0,.000,.000
661531,607259,8,0,0,0,2,2,.000,.200
661531,684007,2,0,0,0,1,0,.000,.000
661531,554430,2,0,0,0,1,0,.000,.000
661531,605135,3,2,1,2,0,0,.667,2.334
661531,664299,2,2,1,3,0,0,1.000,3.500
661531,801139,2,0,0,0,2,0,.000,.000
661531,671737,3,0,0,0,3,0,.000,.000
661531,656876,2,0,0,0,0,0,.000,.000
666126,663738,1,0,0,0,0,0,.000,.000
666126,650633,2,1,1,1,0,1,.500,2.667
666126,605135,5,1,0,1,1,0,.200,.367
666126,554430,3,0,0,0,0,0,.000,.000
666126,669467,1,0,0,0,0,1,.000,.500
666126,656876,5,1,0,2,1,0,.200,.600
666126,683000,1,0,0,0,1,0,.000,.000
666126,607259,7,1,0,2,2,0,.143,.429
666126,671737,3,1,1,2,2,0,.333,1.666
672016,579328,2,0,0,0,1,0,.000,.000
666126,683003,2,0,0,0,1,0,.000,.000
672016,669022,4,1,0,0,1,0,.250,.750
672016,640455,1,0,0,0,0,0,.000,.000
666126,664299,4,1,0,0,1,0,.250,.500
672016,663738,1,0,0,0,0,0,.000,.000
672016,453286,2,0,0,0,2,0,.000,.000
666126,669302,8,4,0,0,3,1,.500,1.056
672016,554430,2,0,0,0,1,0,.000,.000
672016,605135,3,1,0,0,2,0,.333,.666
672016,664299,1,1,0,1,0,1,1.000,2.000
672016,656876,2,1,0,0,0,1,.500,1.167
622268,669467,1,1,0,0,0,0,1.000,3.000
622268,607536,3,1,0,0,0,0,.333,.666
622268,607259,5,1,0,0,0,0,.200,.400
622268,623454,2,0,0,0,2,0,.000,.000
622268,664299,2,1,0,0,0,0,.500,1.000
622268,656876,6,2,0,1,0,0,.333,.929
622268,605135,6,0,0,0,1,0,.000,.000
622268,669302,2,0,0,0,1,0,.000,.000
622268,671737,3,1,0,1,1,0,.333,.666
703607,669022,5,3,1,3,1,1,.600,2.067
703607,607536,3,2,0,0,0,0,.667,1.334
703607,663738,2,0,0,0,0,0,.000,.000
703607,650633,1,1,0,1,0,1,1.000,3.000
703607,684007,3,1,0,1,2,0,.333,1.000
703607,623454,1,0,0,0,0,0,.000,.500
703607,607259,6,2,1,1,1,0,.333,1.166
703607,683000,1,0,0,0,0,0,.000,.000
643446,579328,2,0,0,0,1,0,.000,.000
703607,669302,5,0,0,0,3,1,.000,.167
703607,656876,3,1,0,0,1,2,.333,.933
703607,671737,4,1,0,0,3,0,.250,1.000
703607,605135,3,2,0,0,1,0,.667,1.334
703607,607074,2,2,0,0,0,0,1.000,2.000
703607,801139,5,0,0,0,3,0,.000,.000
643446,669022,20,9,0,1,2,2,.450,.950
643446,640455,6,2,0,1,0,1,.333,.833
703607,683003,2,1,0,0,0,0,.500,1.500
643446,663738,3,1,0,0,0,0,.333,.666
703607,664299,2,0,0,0,2,0,.000,.000
643446,453286,22,5,0,1,4,1,.227,.610
643446,650633,9,4,0,2,0,1,.444,1.139
643446,608331,34,12,0,5,7,2,.353,.819
643446,669467,9,2,0,0,1,0,.222,.444
643446,684007,5,2,0,0,0,0,.400,.800
643446,647336,11,2,1,3,1,0,.182,.795
643446,623454,2,0,0,0,1,1,.000,.333
643446,607536,1,0,0,0,0,1,.000,.500
643446,669160,6,3,0,1,0,0,.500,1.167
643446,554430,38,7,0,1,9,2,.184,.428
643446,607259,9,2,0,0,1,1,.222,.586
643446,641743,1,1,0,1,0,0,1.000,3.000
643446,801139,2,1,0,0,0,0,.500,1.000
643446,800048,2,1,0,0,0,0,.500,1.000
643446,605135,8,2,0,1,2,0,.250,.750
643446,682227,3,0,0,0,0,0,.000,.250
643446,607074,6,0,0,0,0,0,.000,.143
643446,683627,1,0,0,0,0,0,.000,.000
643446,656876,5,1,0,0,1,0,.200,.400
643446,664299,4,1,0,0,1,0,.250,.500
641680,579328,16,6,0,5,3,2,.375,.819
643446,671737,6,1,0,0,1,1,.167,.453
641680,669022,8,3,0,1,1,1,.375,.944
641680,650633,3,1,0,0,1,0,.333,1.000
641680,684007,5,2,2,3,0,0,.400,2.000
641680,640455,2,0,0,0,0,0,.000,.000
643446,683003,4,2,1,3,1,0,.500,1.750
641680,800048,3,1,0,0,0,0,.333,.666
641680,608331,1,1,0,0,0,1,1.000,2.000
641680,669467,2,1,0,1,0,0,.500,1.000
643446,669302,13,4,1,3,4,0,.308,.846
641680,607259,4,0,0,0,0,0,.000,.000
641680,554430,5,1,0,0,1,3,.200,.700
641680,663738,3,1,0,0,0,2,.333,1.267
641680,607536,8,1,1,2,3,0,.125,.625
641680,669620,1,1,0,0,0,2,1.000,2.000
641680,607074,3,0,0,0,0,1,.000,.250
671732,579328,4,0,0,0,1,0,.000,.000
641680,605135,12,1,0,1,4,1,.083,.321
641680,801139,5,1,1,1,4,0,.200,1.000
641680,623454,1,1,0,0,0,0,1.000,2.000
641680,656876,6,2,1,1,1,0,.333,1.166
641680,671737,8,2,0,0,2,1,.250,.583
641680,676083,5,0,0,0,0,0,.000,.000
641680,664299,14,1,0,0,2,3,.071,.306
641680,669302,31,6,1,4,12,3,.194,.588
671732,669022,7,1,0,1,2,1,.143,.393
671732,640455,1,0,0,0,1,0,.000,.000
671732,669467,2,0,0,0,0,0,.000,.000
671732,663738,3,1,1,1,1,0,.333,1.666
671732,453286,3,0,0,0,1,0,.000,.000
671732,656876,8,3,1,1,4,1,.375,1.194
671732,607259,8,2,1,2,3,0,.250,.875
671732,607074,6,1,0,0,3,0,.167,.334
671732,554430,4,1,0,0,1,1,.250,.650
671732,683000,1,0,0,0,1,0,.000,.000
671732,650633,2,1,0,1,0,1,.500,1.167
671732,605135,11,5,0,3,2,2,.455,1.174
671732,671737,5,3,0,1,1,0,.600,1.100
691777,579328,3,1,0,0,0,0,.333,.666
671732,801139,6,1,0,0,2,0,.167,.334
691777,640455,1,0,0,0,0,0,.000,.000
691777,669022,8,0,0,0,4,3,.000,.273
671732,669302,11,2,0,1,3,2,.182,.581
691777,453286,2,0,0,0,1,0,.000,.000
671732,664299,5,1,0,1,3,1,.200,.533
671732,683003,2,1,0,0,0,0,.500,1.000
691777,650633,3,2,0,1,0,0,.667,1.667
691777,663738,2,0,0,0,1,0,.000,.000
691777,607536,3,0,0,0,0,0,.000,.000
691777,607259,1,0,0,0,1,0,.000,.000
691777,801139,2,1,0,0,1,0,.500,1.000
691777,656876,3,0,0,0,0,0,.000,.000
691777,664299,4,2,0,2,2,0,.500,1.250
691777,669302,5,1,1,1,3,0,.200,1.133
691777,623454,1,0,0,0,0,0,.000,.000
683021,669022,3,0,0,0,2,2,.000,.400
683021,607536,2,1,0,0,0,0,.500,1.000
683021,607074,2,0,0,0,0,0,.000,.000
669127,579328,8,2,1,1,2,0,.250,1.000
669127,663738,1,1,0,0,0,0,1.000,3.000
669127,640455,2,0,0,0,2,0,.000,.000
669127,647336,2,0,0,0,1,0,.000,.333
669127,669467,3,1,0,2,2,0,.333,1.000
669127,669022,10,4,1,1,4,1,.400,1.155
669127,607536,5,3,0,1,0,0,.600,2.000
669127,554430,5,0,0,0,3,0,.000,.000
669127,453286,5,1,0,0,0,0,.200,.600
669127,684007,6,2,2,3,1,0,.333,1.666
669127,656876,7,1,1,3,0,0,.143,.714
669127,623454,1,1,0,1,0,0,1.000,2.000
669127,650633,7,2,0,0,1,0,.286,.572
669127,607259,4,1,0,0,1,0,.250,.750
669127,605135,11,2,1,2,2,1,.182,.763
669127,801139,1,1,1,1,0,0,1.000,5.000
669127,607074,11,4,0,0,1,1,.364,.872
669127,683000,1,0,0,0,1,0,.000,.000
669127,671737,2,1,0,0,0,1,.500,1.167
669127,669302,26,4,2,4,10,0,.154,.539
695720,669022,3,1,0,0,1,0,.333,.666
669127,683003,2,1,0,0,0,1,.500,1.167
695720,663738,2,1,0,1,0,0,.500,1.000
669127,664299,8,1,0,0,1,2,.125,.425
695720,607259,5,2,1,1,0,0,.400,1.400
695720,623454,1,0,0,0,1,0,.000,.000
695720,656876,4,0,0,0,0,0,.000,.000
695720,605135,3,1,0,0,0,0,.333,1.000
680869,579328,1,0,0,0,0,0,.000,.000
695720,801139,4,0,0,0,2,0,.000,.000
695720,664299,2,0,0,0,0,0,.000,.000
695720,671737,3,1,0,1,0,0,.333,1.000
695720,683000,1,1,0,0,0,0,1.000,3.000
680869,669022,11,2,0,0,3,0,.182,.364
680869,453286,4,0,0,0,2,1,.000,.200
680869,669467,2,0,0,0,1,0,.000,.000
680869,684007,5,1,0,0,2,0,.200,.400
680869,640455,1,0,0,0,1,0,.000,.000
680869,663738,1,0,0,0,0,1,.000,.500
680869,607259,8,2,0,0,3,0,.250,.500
680869,554430,2,1,0,0,1,0,.500,1.500
680869,607536,6,2,1,2,1,0,.333,1.166
680869,650633,3,1,0,0,2,1,.333,.833
680869,800048,2,1,1,1,0,0,.500,2.500
680869,607074,7,0,0,0,2,0,.000,.000
680869,669302,11,5,2,3,3,0,.455,1.728
680869,801139,2,0,0,0,2,0,.000,.000
680869,683003,2,0,0,0,1,0,.000,.000
680869,623454,1,0,0,0,1,0,.000,.000
680869,605135,13,4,1,2,3,2,.308,1.015
680869,664299,6,1,0,0,3,1,.167,.453
668800,669022,3,0,0,0,2,0,.000,.000
680869,671737,4,2,0,0,1,1,.500,1.350
668800,453286,5,0,0,0,2,0,.000,.000
668800,663738,2,1,1,3,0,0,.500,2.500
680869,656876,6,3,0,0,1,0,.500,1.000
668800,641743,1,1,1,2,0,0,1.000,5.000
668800,554430,7,0,0,0,1,0,.000,.000
668800,608331,3,0,0,1,0,0,.000,.250
668800,605135,4,0,0,0,1,0,.000,.000
668800,656876,1,0,0,0,0,0,.000,.000
668800,682227,4,2,0,0,0,1,.500,1.350
668800,650633,2,0,0,0,0,0,.000,.000
668800,607536,6,0,0,0,0,1,.000,.143
668800,607074,2,0,0,0,0,0,.000,.000
668800,607259,2,0,0,0,1,0,.000,.000
668800,671737,2,1,0,1,0,0,.500,1.000
668800,676083,1,1,0,0,0,0,1.000,2.000
668800,669302,2,1,0,0,0,0,.500,1.000
695391,663738,1,0,0,0,1,0,.000,.000
695391,579328,2,0,0,0,1,0,.000,.000
695391,641743,1,0,0,0,0,0,.000,.500
695391,669302,2,1,0,0,1,0,.500,1.000
683766,669022,2,0,0,0,0,0,.000,.000
695391,664299,2,1,0,0,0,0,.500,1.500
683766,607536,5,2,0,0,0,0,.400,1.000
683766,669467,5,4,0,2,0,1,.800,1.633
683766,650633,2,0,0,0,0,0,.000,.000
683766,800048,2,0,0,0,1,0,.000,.000
683766,607074,2,1,0,0,1,0,.500,1.000
683766,683627,2,0,0,0,0,0,.000,.000
683766,676083,2,1,0,0,0,0,.500,1.500
683766,669160,3,1,0,1,0,0,.333,.666
701852,669467,4,0,0,0,2,1,.000,.200
701852,800048,3,0,0,0,2,0,.000,.000
701852,650633,2,0,0,0,0,0,.000,.000
687551,647336,2,1,0,0,0,0,.500,1.000
687551,669467,8,3,0,1,1,0,.375,1.000
687551,669022,2,0,0,0,0,0,.000,.000
687551,702275,2,0,0,0,0,0,.000,.000
701852,669302,2,0,0,0,2,0,.000,.000
687551,607536,2,0,0,0,1,0,.000,.000
687551,650633,3,1,0,0,1,0,.333,.666
687551,683627,2,1,0,0,0,0,.500,1.000
687529,669022,1,0,0,0,1,1,.000,.500
687529,608331,1,1,0,1,0,1,1.000,2.000
687529,663738,1,0,0,0,1,0,.000,.000
687529,669467,7,1,0,1,4,0,.143,.286
687529,669302,1,0,0,0,1,0,.000,.000
687529,650633,2,2,0,0,0,0,1.000,2.000
813841,607536,3,0,0,0,0,0,.000,.000
813841,669467,4,1,0,0,0,0,.250,.500
813841,650633,3,1,0,0,0,0,.333,.666
813841,800048,3,0,0,0,3,0,.000,.000
691785,663738,1,0,0,0,0,0,.000,.000
691785,607536,1,1,0,0,0,0,1.000,3.000
691785,647336,2,0,0,0,2,0,.000,.000
691785,607074,2,0,0,0,1,0,.000,.000
691785,669467,3,1,0,0,0,0,.333,.666
691785,579328,3,0,0,0,1,0,.000,.000
691785,554430,5,1,0,0,2,0,.200,.400
691785,650633,1,1,0,0,0,0,1.000,3.000
691785,623454,1,0,0,0,1,0,.000,.000
691785,669160,2,1,0,0,0,0,.500,1.000
691785,607259,9,2,0,2,1,0,.222,.666
691785,671737,4,0,0,0,0,0,.000,.000
691785,605135,1,0,0,0,0,0,.000,.000
691785,656876,1,0,0,0,1,0,.000,.000
691785,669302,4,0,0,0,3,0,.000,.000
678545,669022,3,0,0,0,0,0,.000,.000
678545,640455,1,0,0,0,1,0,.000,.000
678545,607536,3,2,0,0,0,0,.667,1.334
678545,669467,3,1,0,1,0,0,.333,1.000
678545,579328,3,1,0,0,1,0,.333,.666
678545,800048,3,0,0,0,1,0,.000,.000
678545,607074,1,0,0,0,1,0,.000,.500
678545,605135,3,1,0,0,1,0,.333,.666
694376,607536,3,0,0,0,0,0,.000,.000
694376,669467,4,0,0,0,1,0,.000,.000
694376,647336,1,0,0,0,1,0,.000,.000
694376,554430,2,1,0,2,0,0,.500,1.500
694376,650633,3,1,1,1,0,0,.333,1.666
806367,669467,5,1,0,2,1,0,.200,.400
806367,650633,3,0,0,0,1,0,.000,.000
682674,607536,3,0,0,0,1,0,.000,.000
682674,800048,3,1,0,1,1,0,.333,.666
672386,669022,6,1,0,0,0,1,.167,.453
672386,579328,3,0,0,0,0,0,.000,.000
672386,663738,9,4,0,3,1,1,.444,1.056
672386,647336,4,1,0,1,0,0,.250,.750
672386,640455,3,0,0,0,1,0,.000,.000
672386,607536,2,0,0,0,0,2,.000,.500
672386,453286,2,1,0,0,0,0,.500,1.000
672386,669620,2,1,0,0,0,0,.500,1.000
672386,669467,6,2,0,0,0,0,.333,.833
672386,607259,6,4,1,4,1,0,.667,2.000
672386,684007,2,1,0,0,0,0,.500,1.000
672386,650633,14,3,0,0,3,0,.214,.428
672386,554430,13,2,0,1,1,0,.154,.297
672386,623454,2,0,0,0,0,0,.000,.000
672386,608331,13,2,0,0,1,2,.154,.421
672386,607074,13,3,0,0,3,1,.231,.795
672386,605135,1,0,0,0,1,2,.000,.667
672386,682227,3,1,0,0,0,0,.333,.666
665926,669022,5,2,0,1,1,0,.400,.800
665926,579328,7,0,0,0,1,1,.000,.125
672386,683627,3,3,0,0,0,1,1.000,2.000
672386,656876,16,5,1,2,0,1,.313,.853
672386,676083,3,1,0,1,0,0,.333,1.000
672386,801139,3,0,0,0,1,0,.000,.000
672386,664299,5,1,1,1,0,0,.200,1.000
672386,669302,15,6,1,5,2,0,.400,1.171
672386,671737,5,1,0,0,1,1,.200,.533
665926,647336,11,4,2,2,2,2,.364,1.500
665926,605135,9,1,1,1,1,0,.111,.555
665926,663738,9,3,0,2,0,0,.333,.733
665926,669620,2,0,0,0,0,0,.000,.000
665926,453286,4,1,0,0,2,0,.250,1.000
665926,607536,2,0,0,0,1,0,.000,.000
665926,608331,4,1,1,3,0,1,.250,1.400
665926,684007,2,0,0,0,0,0,.000,.000
665926,650633,5,0,0,0,2,1,.000,.167
665926,641743,5,0,0,0,1,0,.000,.000
665926,554430,17,4,1,1,4,0,.235,.787
665926,669467,4,0,0,0,2,0,.000,.000
665926,623454,4,0,0,0,1,0,.000,.000
665926,607259,9,4,0,1,0,0,.444,.888
665926,656876,10,3,1,4,4,0,.300,.900
665926,669302,13,3,0,0,4,1,.231,.594
665926,671737,8,0,0,0,3,0,.000,.000
665926,683627,1,0,0,0,0,0,.000,.000
665926,801139,6,3,1,1,0,1,.500,1.738
678218,640455,2,0,0,0,0,0,.000,.000
665926,664299,10,0,0,1,1,1,.000,.083
665926,676083,3,0,0,0,1,0,.000,.250
678218,669620,2,0,0,0,1,0,.000,.000
678218,605135,1,0,0,0,0,1,.000,.500
678218,641743,2,0,0,0,2,0,.000,.000
678218,607259,2,0,0,0,1,0,.000,.000
678218,554430,3,0,0,0,0,0,.000,.000
678218,607074,2,0,0,0,0,0,.000,.000
678218,656876,6,1,0,0,2,2,.167,.542
678218,623454,2,1,0,0,0,0,.500,1.000
678218,671737,1,0,0,0,1,1,.000,.500
678218,676083,2,1,0,0,0,0,.500,1.000
703520,554430,1,1,0,0,0,2,1.000,3.000
703520,663738,2,0,0,0,0,0,.000,.333
678218,669302,2,0,0,0,1,0,.000,.000
678218,801139,3,0,0,0,0,0,.000,.000
703520,605135,3,2,0,0,1,0,.667,1.334
703520,607074,1,0,0,1,1,0,.000,.000
703520,669620,2,0,0,0,0,0,.000,.000
703520,607259,3,1,0,0,1,0,.333,.666
703520,623454,3,1,0,0,1,0,.333,.666
703520,656876,2,0,0,0,0,0,.000,.000
807727,663738,2,0,0,0,0,1,.000,.333
703520,669302,1,0,0,0,1,1,.000,.500
807727,554430,2,0,0,0,1,0,.000,.000
807727,669620,2,1,0,0,1,0,.500,1.000
807727,801139,2,0,0,0,1,1,.000,.333
807727,607074,1,0,0,0,0,1,.000,.500
807727,656876,2,2,0,1,0,0,1.000,2.000
676914,453286,2,1,0,0,1,0,.500,1.500
676914,669467,2,0,0,0,0,1,.000,.333
676914,640455,3,0,0,1,1,0,.000,.000
676914,607259,2,1,0,0,0,0,.500,1.000
676914,647336,3,0,0,0,1,1,.000,.250
676914,608331,11,1,0,0,3,1,.091,.258
676914,669022,9,3,1,2,3,0,.333,1.142
807727,669302,2,0,0,0,0,0,.000,.000
676914,607536,9,2,0,1,2,0,.222,.555
676914,641743,1,1,0,0,0,1,1.000,2.000
676914,684007,2,0,0,0,1,0,.000,.000
676914,607074,13,2,0,0,5,1,.154,.498
676914,671737,6,0,0,0,4,0,.000,.000
676914,801139,3,1,1,1,1,1,.333,1.833
676914,682227,3,1,1,1,2,0,.333,1.666
676914,656876,1,0,0,0,1,0,.000,.000
676914,664299,1,1,1,2,0,0,1.000,4.500
676914,683627,1,0,0,0,1,0,.000,.000
676391,684007,3,0,0,0,2,0,.000,.000
676391,554430,8,2,0,0,2,0,.250,.500
676391,663738,8,4,1,4,0,0,.500,1.500
676391,647336,4,1,0,0,1,0,.250,.750
676391,579328,2,0,0,0,1,0,.000,.000
676391,669467,3,1,0,0,0,0,.333,1.000
676391,607259,9,3,1,3,0,0,.333,1.000
676391,641743,4,0,0,0,2,0,.000,.200
676391,453286,2,0,0,0,0,0,.000,.000
676391,669022,10,2,0,1,3,1,.200,.450
676391,608331,15,5,0,1,1,0,.333,.866
676391,669620,1,1,0,0,0,1,1.000,2.000
676391,640455,6,2,0,0,1,1,.333,.762
676391,607074,17,4,0,0,1,0,.235,.529
676391,607536,7,2,0,0,3,0,.286,.572
676391,605135,7,1,0,0,1,0,.143,.429
676391,669302,8,1,0,0,1,0,.125,.250
676391,801139,8,0,0,0,2,2,.000,.200
543807,647336,2,0,0,0,2,0,.000,.000
543807,579328,19,7,0,1,5,0,.368,.874
676391,623454,2,0,0,0,0,1,.000,.333
676391,656876,10,4,0,0,0,0,.400,.800
676391,671737,5,1,0,0,0,0,.200,.600
543807,663738,11,3,0,3,2,1,.273,.697
676391,664299,6,1,0,1,2,0,.167,.310
676391,676083,4,0,0,0,0,0,.000,.000
676391,683627,3,1,0,0,0,0,.333,.666
543807,669022,10,2,1,1,4,1,.200,.773
543807,608331,15,5,1,1,0,2,.333,1.079
543807,669467,5,3,0,2,0,1,.600,1.467
543807,640455,42,13,0,6,14,4,.310,.788
543807,453286,9,3,0,0,3,0,.333,.666
543807,650633,12,2,0,1,5,3,.167,.583
543807,605135,23,6,2,3,3,0,.261,.826
543807,607536,8,3,0,0,3,1,.375,.819
543807,641743,4,0,0,1,0,0,.000,.000
543807,554430,10,2,0,1,1,1,.200,.473
543807,607259,21,10,2,4,1,5,.476,1.339
543807,607074,30,6,2,6,7,5,.200,.800
543807,623454,4,0,0,0,0,1,.000,.200
543807,671737,14,4,2,5,3,0,.286,1.000
543807,684007,3,2,0,0,0,0,.667,1.334
543807,664299,11,2,0,0,3,1,.182,.432
543807,801139,5,1,0,1,2,1,.200,.486
543807,656876,24,4,1,1,4,4,.167,.661
543807,669302,18,5,1,4,9,2,.278,.961
669701,647336,3,1,0,0,1,0,.333,.666
669701,669022,2,1,0,0,1,0,.500,1.000
543807,676083,6,1,0,1,0,0,.167,.334
669701,640455,2,1,0,1,0,1,.500,1.667
669701,663738,2,0,0,0,1,0,.000,.000
669701,669467,3,1,0,0,0,0,.333,.666
669701,579328,7,2,0,0,2,0,.286,.572
669701,605135,9,2,0,1,1,3,.222,.718
669701,554430,13,3,0,0,5,0,.231,.462
669701,650633,4,1,0,0,0,0,.250,.500
669701,669620,1,0,0,0,1,0,.000,.000
669701,623454,3,0,0,0,1,0,.000,.000
669701,607074,5,0,0,0,1,0,.000,.000
669701,607259,2,0,0,0,1,0,.000,.000
669701,608331,3,1,0,1,1,0,.333,.666
669701,664299,8,1,0,0,0,0,.125,.375
669701,656876,8,4,0,0,3,0,.500,1.000
669701,669302,26,4,0,1,4,2,.154,.406
669701,676083,3,0,0,0,1,0,.000,.000
672960,647336,3,0,0,0,0,0,.000,.000
672960,607536,3,1,0,0,2,0,.333,.666
672960,663738,3,1,0,1,0,0,.333,.666
669701,671737,4,1,1,1,3,1,.250,1.400
672960,669022,3,1,0,0,0,0,.333,.666
672960,669620,2,0,0,0,2,0,.000,.000
672960,640455,2,0,0,0,1,0,.000,.333
672960,641743,2,1,0,0,0,2,.500,1.300
672960,554430,5,1,0,0,2,0,.200,.600
672960,605135,5,2,1,1,0,0,.400,1.700
672960,607259,7,1,0,0,2,1,.143,.393
672960,607074,3,0,0,0,1,1,.000,.250
672960,664299,3,2,0,0,0,0,.667,1.334
672960,656876,10,3,1,2,5,1,.300,.964
672960,801139,6,1,0,2,2,1,.167,.453
672960,676083,3,1,0,0,1,0,.333,.666
672960,623454,3,1,0,0,1,0,.333,.666
664702,669467,2,1,0,0,0,0,.500,1.000
664702,554430,2,0,0,0,2,1,.000,.333
672960,669302,5,0,0,0,1,0,.000,.000
664702,640455,12,4,0,1,3,2,.333,.817
664702,607536,6,3,0,0,1,0,.500,1.000
664702,453286,2,0,0,0,0,0,.000,.000
672960,671737,2,0,0,0,1,1,.000,.333
664702,647336,3,2,1,1,1,1,.667,2.417
664702,650633,5,0,0,0,4,0,.000,.000
664702,669022,7,4,0,2,0,0,.571,1.428
664702,579328,14,3,0,2,4,2,.214,.527
664702,605135,13,5,0,1,2,1,.385,.814
664702,607259,5,0,0,0,0,0,.000,.000
664702,608331,9,2,0,1,1,1,.222,.633
664702,641743,4,0,0,0,0,1,.000,.200
664702,669620,1,0,0,0,0,0,.000,.000
664702,656876,2,1,0,0,0,1,.500,1.167
664702,623454,1,0,0,0,0,0,.000,.000
664702,607074,14,2,0,0,8,2,.143,.464
664702,663738,14,4,0,0,0,1,.286,.690
664702,669160,1,1,0,1,0,0,1.000,2.000
664702,671737,2,0,0,0,0,0,.000,.000
664702,801139,7,0,0,0,2,1,.000,.125
664770,647336,2,0,0,1,0,0,.000,.000
664770,669022,2,0,0,0,1,1,.000,.333
664702,669302,10,3,0,1,2,0,.300,.600
664770,663738,2,0,0,0,0,0,.000,.000
664770,640455,6,0,0,0,0,0,.000,.000
664702,664299,9,3,0,0,2,0,.333,.889
664770,607536,3,1,0,2,1,0,.333,1.333
664770,554430,7,3,0,1,1,0,.429,.858
664770,608331,5,2,0,1,3,0,.400,.733
664770,605135,6,2,0,0,1,0,.333,.666
664770,607259,5,2,0,0,1,1,.400,.900
664770,623454,2,0,0,0,1,0,.000,.000
664770,676083,5,4,0,0,1,0,.800,1.800
664770,656876,8,2,0,1,3,0,.250,.472
664770,683627,3,1,1,1,0,0,.333,1.666
664770,664299,6,1,0,1,1,0,.167,.500
664770,669302,5,1,0,0,0,0,.200,.400
664770,801139,4,1,0,0,0,0,.250,.500
664770,671737,4,1,0,0,1,1,.250,.650
665489,663738,11,6,1,1,1,0,.545,1.363
665489,669620,1,0,0,0,0,1,.000,.500
665489,607536,8,2,0,1,1,0,.250,.583
665489,554430,16,3,1,2,3,0,.188,.614
815873,669302,2,0,0,0,0,0,.000,.000
665489,453286,8,2,2,5,1,0,.250,1.250
665489,579328,7,4,0,0,0,2,.571,1.381
665489,684007,1,0,0,0,0,1,.000,.500
665489,647336,10,3,0,2,0,0,.300,.700
665489,608331,20,5,0,5,3,0,.250,.650
665489,605135,11,1,0,0,3,1,.091,.258
665489,669022,11,4,1,4,2,0,.364,1.091
665489,607259,11,2,1,2,1,1,.182,.705
665489,669467,6,1,1,2,0,0,.167,.834
665489,640455,9,3,0,0,2,0,.333,.666
665489,650633,16,2,0,0,6,1,.125,.426
665489,623454,2,0,0,0,0,1,.000,.333
665489,641743,4,2,1,2,0,0,.500,1.750
665489,682227,3,1,0,0,0,0,.333,.666
665489,607074,20,11,1,5,0,6,.550,1.504
665489,656876,30,6,1,3,5,1,.200,.593
665489,801139,8,2,0,0,1,0,.250,.625
665489,676083,1,0,0,0,0,0,.000,.000
665489,664299,12,1,0,0,3,2,.083,.297
665489,683627,3,1,1,1,0,0,.333,1.666
665489,671737,15,7,1,2,0,2,.467,1.262
696030,647336,4,0,0,0,1,0,.000,.000
665489,669302,21,7,2,3,4,2,.333,1.105
696030,669467,1,0,0,0,0,1,.000,.500
696030,669160,3,1,0,1,0,0,.333,.666
696030,641743,2,1,0,0,1,0,.500,1.000
696030,623454,1,0,0,0,0,0,.000,.000
696030,800048,3,0,0,0,1,0,.000,.000
696030,664299,2,1,0,0,0,0,.500,1.000
696030,656876,2,0,0,0,1,0,.000,.000
607043,579328,2,0,0,1,1,0,.000,.000
696030,671737,2,0,0,0,2,0,.000,.000
607043,669467,18,2,0,0,2,0,.111,.278
607043,663738,2,0,0,0,0,0,.000,.000
696030,676083,3,1,0,0,1,0,.333,.666
696030,669302,2,1,0,0,0,0,.500,1.500
607043,669022,17,5,0,3,3,1,.294,.745
607043,647336,17,5,1,1,1,1,.294,.804
607043,640455,7,2,0,1,3,1,.286,.804
607043,650633,8,2,0,1,3,1,.250,.583
607043,453286,29,8,2,4,14,7,.276,.957
607043,607259,13,3,0,2,3,0,.231,.539
607043,702275,1,0,0,0,0,0,.000,.000
607043,684007,5,5,1,3,0,1,1.000,2.600
607043,800048,3,0,0,0,1,0,.000,.000
607043,669620,2,1,0,1,0,0,.500,1.500
607043,669160,11,2,0,1,7,2,.182,.581
607043,605135,12,3,0,2,3,0,.250,.500
607043,607536,17,6,1,4,4,0,.353,.941
607043,623454,1,0,0,0,0,1,.000,.500
607043,554430,50,15,2,5,8,1,.300,.854
607043,607074,9,4,1,6,3,1,.444,1.233
607043,641743,7,3,0,0,2,0,.429,1.000
607043,656876,6,3,0,2,0,0,.500,1.000
607043,608331,33,4,0,0,12,7,.121,.508
607043,683003,2,0,0,0,2,0,.000,.000
683227,579328,3,1,0,2,0,0,.333,1.250
607043,671737,6,0,0,0,2,0,.000,.000
607043,664299,2,0,0,0,0,2,.000,.500
607043,682227,5,2,0,0,1,0,.400,.800
683227,663738,1,0,0,0,0,0,.000,.000
607043,669302,17,3,2,2,5,1,.176,.751
683227,669620,1,1,0,0,0,0,1.000,2.000
683227,607259,2,0,0,0,0,0,.000,.000
683227,641743,2,1,0,0,0,0,.500,1.000
683227,656876,2,0,0,0,0,0,.000,.000
683227,669160,2,1,0,0,0,0,.500,1.500
608369,640455,9,3,1,1,2,0,.333,1.000
683227,664299,2,1,0,1,1,0,.500,1.000
608369,669022,3,0,0,1,1,0,.000,.000
608369,647336,7,0,0,0,1,2,.000,.222
608369,669620,3,2,0,0,1,0,.667,2.000
608369,554430,15,5,0,1,3,2,.333,.812
683227,676083,2,0,0,0,0,0,.000,.000
608369,641743,3,0,0,0,1,0,.000,.000
608369,663738,4,1,0,1,2,1,.250,.650
608369,579328,19,6,1,2,3,6,.316,.954
608369,800048,3,1,1,2,0,0,.333,1.666
608369,684007,3,1,1,1,1,0,.333,1.666
608369,607259,3,2,0,0,1,0,.667,1.334
608369,608331,11,0,0,0,5,0,.000,.000
608369,669467,3,1,0,1,2,1,.333,1.167
608369,650633,4,2,0,0,0,0,.500,1.250
608369,607536,23,14,1,4,3,1,.609,1.451
608369,623454,1,1,0,0,0,0,1.000,2.000
608369,607074,11,6,1,2,2,1,.545,1.401
608369,453286,9,1,0,0,1,1,.111,.555
608369,656876,8,1,0,0,4,2,.125,.425
608369,605135,13,3,0,3,4,2,.231,.718
608369,664299,22,5,2,3,4,1,.227,.852
643376,640455,1,1,0,0,0,1,1.000,3.000
608369,669160,2,1,0,0,0,1,.500,1.167
608369,669302,36,11,1,3,6,3,.306,.903
643376,647336,2,0,0,0,0,0,.000,.000
608369,671737,11,3,0,2,5,0,.273,.637
643376,669022,2,0,0,0,1,1,.000,.333
643376,554430,3,0,0,0,1,0,.000,.000
643376,579328,7,1,0,0,2,2,.143,.476
643376,453286,3,0,0,0,2,0,.000,.000
643376,607536,2,0,0,0,2,0,.000,.000
643376,663738,3,1,0,2,1,2,.333,1.167
643376,623454,1,0,0,0,1,0,.000,.000
643376,607259,2,0,0,0,1,1,.000,.333
643376,608331,7,0,0,0,3,2,.000,.222
643376,641743,2,1,1,2,1,0,.500,2.500
643376,605135,2,0,0,0,0,0,.000,.000
643376,650633,5,2,0,1,2,0,.400,1.000
643376,607074,7,2,0,0,3,3,.286,.786
643376,676083,1,0,0,0,1,0,.000,.000
643376,671737,3,1,0,1,1,1,.333,1.167
643376,656876,8,1,0,0,0,0,.125,.375
643376,669302,5,0,0,0,1,0,.000,.000
643376,664299,4,1,1,1,0,0,.250,1.250
553869,669467,4,1,0,0,2,0,.250,.500
553869,607536,11,2,0,0,1,1,.182,.432
553869,640455,13,2,1,2,1,0,.154,.539
553869,663738,5,0,0,0,1,0,.000,.000
553869,579328,13,4,1,5,3,0,.308,1.055
553869,647336,4,1,0,1,0,1,.250,.650
553869,684007,2,0,0,0,1,0,.000,.000
553869,453286,7,0,0,0,2,0,.000,.000
553869,669022,5,3,1,2,0,2,.600,1.914
553869,554430,9,0,0,0,3,0,.000,.000
553869,607074,7,1,0,0,2,2,.143,.476
553869,623454,1,0,0,0,1,0,.000,.000
553869,607259,10,4,1,2,2,0,.400,1.200
553869,650633,3,0,0,0,1,1,.000,.250
553869,669620,2,1,1,1,1,0,.500,2.500
553869,641743,2,0,0,0,1,0,.000,.000
553869,605135,3,0,0,0,0,0,.000,.000
553869,682227,3,1,1,1,0,1,.333,1.833
553869,608331,11,3,0,0,4,1,.273,.606
553869,671737,2,1,1,1,0,0,.500,2.500
694497,647336,4,0,0,0,2,0,.000,.000
553869,683003,3,1,0,0,0,0,.333,1.000
553869,664299,1,0,0,0,1,0,.000,.000
694497,579328,2,0,0,0,1,0,.000,.000
553869,669302,2,0,0,0,1,0,.000,.000
694497,663738,3,0,0,0,1,0,.000,.250
694497,554430,3,0,0,0,0,0,.000,.000
694497,669467,2,0,0,0,2,0,.000,.000
694497,607259,3,1,0,0,1,0,.333,.666
553869,669160,4,2,0,1,0,0,.500,1.500
694497,608331,2,0,0,0,2,0,.000,.000
694497,800048,2,1,0,0,1,0,.500,1.000
694497,656876,3,0,0,0,1,0,.000,.000
694497,623454,2,0,0,0,1,0,.000,.000
694497,605135,6,5,1,1,0,0,.833,2.333
694497,669160,4,1,0,0,2,0,.250,.500
694497,669302,21,3,0,1,10,1,.143,.407
694497,664299,5,2,1,1,1,0,.400,1.600
677649,640455,2,0,0,0,1,0,.000,.000
677649,647336,3,1,0,0,2,0,.333,.666
677649,663738,3,2,0,0,0,1,.667,1.417
677649,669620,1,0,0,0,1,0,.000,.000
677649,607259,5,2,1,1,1,0,.400,1.400
677649,650633,1,0,0,0,0,0,.000,.000
677649,641743,4,2,0,1,0,1,.500,1.350
677649,554430,5,1,0,1,1,0,.200,.400
677649,579328,12,1,1,1,3,0,.083,.487
677649,608331,4,3,0,2,0,0,.750,1.500
677649,607536,6,2,1,3,2,0,.333,1.166
677649,669160,5,2,1,3,1,1,.400,1.700
677649,669467,5,1,0,0,1,0,.200,.400
677649,800048,5,0,0,0,1,1,.000,.167
677649,605135,2,2,0,0,0,0,1.000,2.500
677649,607074,6,2,0,0,2,0,.333,.833
677649,623454,2,1,1,1,0,0,.500,2.500
677649,669302,16,1,0,1,7,0,.063,.122
677649,671737,6,1,0,1,3,0,.167,.500
677649,664299,10,2,0,0,6,2,.200,.633
669394,663738,3,1,0,1,1,0,.333,.917
677649,656876,3,0,0,0,0,0,.000,.000
669394,640455,8,3,2,3,1,0,.375,1.625
669394,669022,6,2,0,1,1,1,.333,.875
669394,554430,14,2,0,0,3,1,.143,.343
669394,647336,5,0,0,0,2,1,.000,.167
669394,607536,8,3,1,1,3,0,.375,1.125
669394,579328,8,1,0,0,2,0,.125,.250
669394,669620,1,0,0,0,0,0,.000,.000
669394,607259,6,1,0,0,2,2,.167,.542
669394,608331,8,0,0,0,3,2,.000,.200
669394,650633,4,1,0,0,2,0,.250,.500
669394,684007,5,1,0,0,0,1,.200,.533
669394,607074,6,0,0,0,1,0,.000,.000
669394,702275,1,0,0,0,0,0,.000,.000
669394,641743,4,1,1,1,2,1,.250,1.400
669394,605135,5,1,0,2,1,0,.200,.700
669394,669467,3,1,0,2,0,2,.333,1.267
669394,682227,3,0,0,0,1,0,.000,.000
669394,623454,2,0,0,0,1,0,.000,.000
669394,669160,4,0,0,0,1,1,.000,.200
669394,683003,2,1,0,1,0,1,.500,1.667
669394,664299,5,0,0,0,4,0,.000,.167
669394,669302,15,4,0,2,6,3,.267,.789
669394,676083,4,0,0,0,1,0,.000,.000
669394,671737,5,2,2,5,1,0,.400,2.000
669394,656876,11,4,1,2,2,0,.364,1.000
669394,800048,5,1,0,2,2,0,.200,.400
592626,669022,1,0,0,0,1,0,.000,.000
592626,647336,6,3,1,3,0,1,.500,1.571
592626,663738,1,1,0,0,0,0,1.000,4.000
592626,669620,1,0,0,0,0,0,.000,.000
592626,669467,5,0,0,0,1,0,.000,.000
592626,623454,2,0,0,0,0,0,.000,.000
592626,650633,6,2,0,0,2,1,.333,.929
592626,607536,4,3,0,1,1,1,.750,1.800
592626,607259,8,2,2,3,4,1,.250,1.400
592626,554430,22,4,2,3,8,4,.182,.808
592626,676083,2,1,0,0,0,0,.500,1.667
592626,453286,19,2,0,0,7,3,.105,.419
592626,605135,12,5,2,6,4,2,.417,1.467
673962,669467,2,1,0,1,0,0,.500,1.167
592626,669160,8,3,0,3,3,1,.375,1.250
592626,671737,5,0,0,0,2,0,.000,.000
592626,683627,3,0,0,0,1,0,.000,.000
673962,647336,3,0,0,0,1,0,.000,.000
673962,663738,2,0,0,0,0,0,.000,.000
673962,607536,7,5,1,3,0,1,.714,1.893
592626,669302,22,7,1,2,7,1,.318,.966
592626,664299,8,2,0,2,3,0,.250,.625
592626,656876,5,1,1,1,4,1,.200,1.133
673962,579328,12,3,0,1,6,0,.250,.500
673962,684007,3,1,0,1,0,0,.333,1.000
673962,554430,4,0,0,0,4,0,.000,.000
673962,656876,2,0,0,0,1,0,.000,.000
673962,669160,3,0,0,0,2,0,.000,.000
673962,800048,6,4,0,0,0,0,.667,1.500
673962,608331,4,2,0,0,1,2,.500,1.167
673962,702275,1,1,0,0,0,0,1.000,2.000
673962,623454,1,1,0,0,0,0,1.000,3.000
673962,650633,1,0,0,0,1,0,.000,.000
673962,676083,2,1,0,1,1,0,.500,1.000
673962,605135,8,1,0,1,2,1,.125,.347
673962,607074,10,3,1,1,3,0,.300,.964
673962,664299,6,4,0,1,2,1,.667,1.881
673962,671737,5,0,0,0,2,2,.000,.286
673962,669302,18,2,0,1,3,0,.111,.272
679822,579328,5,0,0,0,1,0,.000,.000
679822,607536,3,1,0,0,2,0,.333,.666
679822,669620,4,0,0,0,0,0,.000,.000
679822,641743,5,1,0,0,0,0,.200,.533
670032,640455,7,2,0,1,1,0,.286,.572
679822,800048,6,1,0,1,2,0,.167,.500
679822,607074,2,0,0,0,1,0,.000,.000
679822,605135,2,0,0,0,0,0,.000,.000
670032,579328,11,3,0,1,2,1,.273,.606
670032,650633,2,0,0,0,2,1,.000,.333
670032,607536,3,1,0,0,0,0,.333,.666
670032,669620,1,0,0,0,0,0,.000,.000
670032,669467,2,0,0,0,1,0,.000,.000
670032,453286,5,1,0,0,1,0,.200,.400
670032,554430,5,0,0,1,1,1,.000,.167
670032,607074,7,3,0,0,1,0,.429,1.143
670032,641743,2,1,0,1,0,0,.500,2.000
694671,640455,1,0,0,1,0,0,.000,.500
670032,683627,1,1,0,0,0,0,1.000,2.000
670032,656876,4,2,0,0,0,0,.500,1.000
670032,605135,9,4,0,1,1,1,.444,.989
694671,669022,2,0,0,0,1,0,.000,.000
670032,800048,3,2,0,1,0,0,.667,1.334
694671,579328,14,5,0,0,2,4,.357,.929
694671,647336,3,0,0,0,1,0,.000,.000
670032,676083,2,0,0,0,1,0,.000,.000
670032,669302,14,6,0,4,1,0,.429,.858
670032,669160,2,0,0,1,1,0,.000,.000
670032,664299,4,1,0,1,2,0,.250,.500
694671,641743,4,1,0,0,0,2,.250,.750
694671,554430,2,0,0,0,0,0,.000,.000
694671,669620,4,2,1,2,1,0,.500,1.750
694671,607259,3,0,0,0,0,0,.000,.000
694671,669467,3,2,0,0,1,0,.667,1.334
694671,608331,2,2,0,0,0,1,1.000,2.500
694671,607536,3,1,0,0,0,0,.333,.666
694671,702275,1,0,0,0,1,0,.000,.000
694671,607074,7,0,0,0,2,5,.000,.417
694671,663738,1,0,0,0,0,0,.000,.000
694671,650633,2,0,0,0,2,0,.000,.000
694671,800048,3,1,0,0,1,0,.333,1.000
694671,656876,6,0,0,0,2,1,.000,.143
694671,669160,2,0,0,0,0,1,.000,.333
694671,669302,21,5,0,1,9,3,.238,.666
694671,671737,5,0,0,0,1,1,.000,.167
663586,647336,7,2,0,0,3,0,.286,.572
694671,605135,7,3,0,1,1,2,.429,1.270
663586,453286,21,6,1,1,8,0,.286,.794
663586,684007,5,1,0,0,1,0,.200,.400
663586,669022,14,5,0,1,5,0,.357,.804
663586,579328,8,3,0,1,2,0,.375,.750
663586,669467,6,5,1,4,0,0,.833,2.333
663586,640455,10,3,1,1,5,1,.300,1.017
694671,664299,6,0,0,0,0,2,.000,.250
663586,608331,1,0,0,0,1,1,.000,.500
663586,607536,14,5,2,3,3,0,.357,1.286
663586,641743,3,1,0,1,1,0,.333,1.000
663586,607259,9,2,0,1,3,2,.222,.586
663586,800048,3,0,0,0,0,0,.000,.000
663586,650633,9,4,0,0,4,0,.444,.888
663586,607074,3,1,1,1,2,2,.333,1.933
663586,683000,1,1,0,0,0,0,1.000,2.000
663586,656876,4,2,0,0,2,0,.500,1.000
663586,623454,1,0,0,0,1,0,.000,.000
663586,669160,6,3,2,4,1,1,.500,2.125
663586,605135,14,3,1,1,6,0,.214,.696
663586,683627,4,1,0,0,2,0,.250,.500
663586,801139,5,0,0,0,3,0,.000,.000
663586,664299,6,0,0,0,2,0,.000,.000
663586,676083,5,1,1,3,2,0,.200,1.000
663586,554430,49,13,1,6,17,3,.265,.798
663586,683003,2,0,0,0,1,0,.000,.000
663586,669302,6,2,1,1,0,0,.333,1.166
676551,607259,2,0,0,0,0,0,.000,.000
676551,650633,3,1,0,0,1,0,.333,.666
663586,671737,7,2,0,0,0,1,.286,.661
676551,682227,2,0,0,0,2,0,.000,.000
676551,669160,2,1,0,0,1,0,.500,1.000
680577,663738,1,0,0,0,0,0,.000,.000
680577,671737,2,0,0,0,0,0,.000,.333
680577,656876,2,0,0,0,0,0,.000,.000
642086,663738,2,1,0,0,0,1,.500,1.167
642086,640455,4,2,0,2,0,1,.500,1.100
642086,669467,4,1,0,0,0,1,.250,.650
642086,647336,10,3,0,1,2,0,.300,.600
642086,453286,19,1,0,1,7,4,.053,.313
642086,554430,34,13,1,5,8,2,.382,.932
642086,641743,1,1,1,4,0,0,1.000,5.000
642086,608331,9,2,1,1,2,1,.222,.856
642086,605135,8,2,0,1,1,1,.250,.583
642086,607536,4,1,0,0,1,1,.250,.650
642086,650633,10,2,0,0,2,0,.200,.500
642086,607259,4,1,0,1,1,0,.250,.500
642086,664299,2,1,0,0,0,0,.500,1.000
686948,669022,3,2,0,1,0,1,.667,1.417
642086,801139,2,1,0,1,0,0,.500,1.000
642086,669160,5,2,1,4,0,3,.400,1.825
642086,683627,1,0,0,0,0,0,.000,.000
642086,671737,7,1,0,0,5,0,.143,.286
686948,579328,3,1,0,0,1,0,.333,.666
642086,669302,5,2,0,1,2,0,.400,1.200
642086,656876,2,1,0,0,0,0,.500,1.000
686948,640455,5,1,0,0,0,1,.200,.733
642086,676083,4,2,1,3,0,0,.500,1.750
686948,684007,9,2,1,2,1,0,.222,.889
686948,647336,7,2,1,3,0,0,.286,1.089
686948,607259,3,0,0,0,1,0,.000,.000
686948,607536,3,2,0,0,0,0,.667,1.334
686948,641743,3,0,0,0,0,0,.000,.000
686948,605135,2,0,0,0,2,0,.000,.000
686948,650633,6,1,0,0,4,2,.167,.542
686948,800048,2,1,0,0,1,1,.500,1.167
686948,608331,3,1,0,0,1,0,.333,.666
686948,554430,8,1,0,0,4,1,.125,.347
686948,683000,1,0,0,0,0,1,.000,.500
686948,669160,6,2,0,1,0,2,.333,.833
686948,801139,3,2,1,2,0,1,.667,2.417
673490,579328,3,1,0,0,0,0,.333,.666
686948,683627,4,2,0,1,1,0,.500,1.250
686948,669302,5,1,1,1,1,1,.200,1.133
686948,671737,5,0,0,0,3,0,.000,.000
686948,676083,2,1,0,0,0,0,.500,1.000
673490,663738,2,0,0,0,1,0,.000,.000
686948,683003,2,0,0,0,2,0,.000,.000
673490,669467,2,0,0,0,2,0,.000,.000
673490,669022,7,1,0,0,2,2,.143,.476
673490,554430,10,2,1,1,6,1,.200,.773
673490,640455,12,1,0,0,2,1,.083,.237
673490,682227,2,0,0,0,1,0,.000,.000
673490,684007,12,1,0,0,3,0,.083,.166
673490,607536,21,8,1,2,0,2,.381,1.202
673490,656876,1,0,0,0,0,0,.000,.000
673490,650633,1,1,0,1,0,0,1.000,2.000
673490,608331,9,2,0,0,1,0,.222,.444
673490,664299,4,0,0,0,4,0,.000,.000
673490,453286,10,2,0,0,4,0,.200,.400
673490,607074,13,0,0,0,1,1,.000,.071
673490,607259,4,1,0,0,1,0,.250,.500
673490,683000,1,0,0,0,0,0,.000,.000
673490,669160,11,2,0,2,3,0,.182,.455
673490,605135,7,1,0,0,2,0,.143,.286
673490,683627,1,0,0,0,0,0,.000,.000
673490,801139,3,0,0,0,2,0,.000,.000
571657,647336,2,1,0,1,0,0,.500,1.500
571657,579328,7,0,0,0,2,0,.000,.000
673490,669302,12,0,0,1,5,0,.000,.000
571657,640455,5,1,0,0,2,0,.200,.400
571657,554430,2,0,0,0,1,0,.000,.000
571657,453286,6,2,1,1,2,0,.333,1.262
571657,669467,6,2,0,3,1,2,.333,.833
571657,663738,2,1,0,0,0,0,.500,1.167
571657,650633,4,0,0,0,1,0,.000,.000
571657,669620,1,1,0,0,0,0,1.000,2.000
571657,607259,4,2,0,0,0,0,.500,1.000
571657,607536,8,2,1,1,1,0,.250,.875
571657,608331,8,3,0,1,1,0,.375,.750
571657,669022,8,1,0,1,2,0,.125,.375
571657,605135,4,1,0,0,2,1,.250,.650
571657,683627,1,0,0,0,0,0,.000,.000
571657,656876,2,0,0,0,2,0,.000,.000
571657,669160,3,1,0,1,0,0,.333,1.000
571657,671737,2,1,1,1,1,0,.500,2.500
571657,607074,8,2,0,0,1,1,.250,.583
621566,669022,25,5,0,2,10,4,.200,.630
621566,579328,28,8,2,2,7,4,.286,.982
621566,669467,5,3,1,3,1,1,.600,2.067
621566,647336,6,1,0,0,2,2,.167,.708
621566,453286,15,4,1,2,7,0,.267,.734
621566,607536,19,4,1,2,3,2,.211,.739
621566,663738,2,1,0,0,0,0,.500,1.000
621566,640455,14,5,2,4,7,0,.357,1.143
621566,554430,34,6,2,2,11,5,.176,.694
621566,641743,5,0,0,0,2,0,.000,.000
621566,684007,14,6,0,1,3,1,.429,1.038
621566,608331,3,0,0,0,1,0,.000,.000
621566,669620,2,0,0,0,0,0,.000,.000
621566,607259,18,7,2,3,4,3,.389,1.198
621566,656876,2,0,0,0,1,0,.000,.000
621566,650633,6,1,0,0,0,3,.167,.611
621566,800048,2,0,0,0,1,1,.000,.333
621566,682227,1,1,1,2,0,0,1.000,5.000
621566,623454,3,1,0,2,0,0,.333,1.000
621566,607074,11,5,1,3,1,0,.455,1.273
621566,683000,2,0,0,0,2,1,.000,.333
621566,676083,6,3,0,2,2,1,.500,1.238
621566,671737,8,2,0,2,3,0,.250,.500
621566,605135,11,2,1,2,4,3,.182,.812
621566,801139,6,1,0,0,1,0,.167,.334
621566,683627,5,0,0,1,2,0,.000,.000
621566,683003,2,0,0,0,2,0,.000,.000
643289,669022,7,3,0,0,3,1,.429,.929
643289,453286,3,0,0,0,2,0,.000,.000
643289,579328,10,2,0,0,2,0,.200,.500
621566,669302,16,4,2,4,4,3,.250,1.118
643289,647336,3,2,0,0,0,0,.667,1.334
621566,669160,10,0,0,0,6,3,.000,.231
621566,664299,18,2,2,4,9,2,.111,.682
643289,640455,15,3,1,1,0,0,.200,.600
643289,607536,22,7,1,4,2,2,.318,1.011
643289,669620,1,1,0,1,0,0,1.000,3.000
643289,608331,15,3,0,0,1,1,.200,.450
643289,650633,12,3,0,0,1,0,.250,.583
643289,684007,5,0,0,0,1,0,.000,.000
643289,641743,2,2,0,0,0,0,1.000,2.000
643289,800048,3,0,0,0,0,0,.000,.000
643289,669467,3,1,0,0,0,0,.333,.666
643289,683627,3,0,0,0,1,0,.000,.000
643289,554430,8,0,0,0,3,0,.000,.000
643289,607259,7,3,0,1,0,0,.429,.804
643289,623454,1,0,0,0,0,0,.000,.000
643289,683003,2,0,0,0,0,0,.000,.000
643289,656876,4,1,0,0,1,0,.250,.750
671739,647336,6,3,0,0,0,1,.500,1.071
643289,676083,5,3,0,0,0,0,.600,1.400
643289,605135,13,4,0,1,2,0,.308,.616
643289,607074,7,3,0,0,0,0,.429,1.000
643289,669160,6,1,0,1,1,0,.167,.334
643289,801139,6,0,0,0,0,0,.000,.000
671739,579328,4,1,0,1,1,0,.250,.500
671739,669467,7,2,0,0,0,0,.286,.572
671739,640455,10,1,0,1,3,1,.100,.282
671739,684007,11,2,0,0,3,0,.182,.364
643289,669302,17,3,0,0,3,0,.176,.352
671739,669022,18,5,3,4,1,1,.278,1.183
643289,671737,6,2,0,0,2,2,.333,1.167
671739,682227,1,1,1,1,0,0,1.000,5.000
671739,453286,12,3,0,1,1,1,.250,.641
671739,554430,25,6,0,2,11,0,.240,.499
671739,650633,9,2,0,1,1,0,.222,.444
671739,607536,10,4,0,0,1,0,.400,.900
671739,607074,4,0,0,0,4,0,.000,.000
671739,607259,5,0,0,0,1,0,.000,.000
671739,641743,3,1,0,0,1,0,.333,1.000
573262,579328,3,0,0,0,2,0,.000,.000
671739,656876,3,1,0,0,0,0,.333,.666
671739,801139,5,0,0,0,0,0,.000,.000
671739,664299,2,0,0,0,1,0,.000,.000
671739,683000,2,0,0,0,0,1,.000,.333
671739,676083,7,1,0,0,0,0,.143,.286
671739,683003,2,0,0,0,2,0,.000,.000
671739,605135,8,0,0,0,5,2,.000,.200
671739,669302,5,0,0,0,2,0,.000,.000
671739,683627,2,1,1,1,1,0,.500,2.500
573262,647336,7,1,0,0,2,1,.143,.679
671739,669160,8,1,0,0,3,0,.125,.250
573262,453286,5,0,0,0,4,1,.000,.167
671739,671737,7,1,0,0,2,0,.143,.286
573262,669022,8,2,0,1,3,1,.250,.958
573262,640455,8,2,0,2,3,1,.250,.833
573262,607536,24,9,1,5,4,2,.375,1.090
573262,669467,4,1,0,0,0,0,.250,.500
573262,608331,7,2,0,0,3,1,.286,.661
573262,607259,14,1,0,0,8,0,.071,.214
573262,623454,1,0,0,0,0,0,.000,.000
573262,554430,15,2,0,0,10,2,.133,.368
573262,800048,3,0,0,0,1,0,.000,.000
573262,663738,1,0,0,0,0,0,.000,.000
573262,669620,1,0,0,0,0,0,.000,.000
573262,650633,15,3,0,0,5,1,.200,.450
573262,605135,14,4,0,2,5,1,.286,.670
573262,682227,2,0,0,0,0,1,.000,.333
573262,683627,4,0,0,0,1,0,.000,.000
573262,669160,14,7,0,1,1,2,.500,1.172
573262,683000,2,0,0,0,1,0,.000,.000
573262,669302,10,2,0,0,1,0,.200,.500
645277,669467,5,1,0,0,1,0,.200,.400
573262,683003,6,1,1,1,1,0,.167,.834
645277,663738,1,0,0,0,0,0,.000,.000
645277,579328,9,3,1,2,4,0,.333,1.000
645277,647336,7,0,0,0,0,0,.000,.000
573262,676083,8,0,0,0,2,0,.000,.000
645277,640455,12,2,0,1,0,0,.167,.500
645277,669022,19,6,1,3,3,0,.316,.879
573262,671737,2,1,0,0,1,0,.500,1.000
645277,650633,7,1,1,3,1,1,.143,.821
645277,607536,26,12,0,5,1,1,.462,1.135
645277,453286,28,5,1,3,10,3,.179,.544
645277,684007,15,6,2,2,3,0,.400,1.200
645277,554430,56,10,3,5,9,3,.179,.613
645277,608331,2,0,0,0,0,1,.000,.333
645277,623454,2,0,0,0,1,0,.000,.000
645277,607259,9,1,1,1,1,0,.111,.555
645277,800048,3,1,0,0,0,0,.333,.666
645277,683000,2,0,0,0,2,0,.000,.000
645277,641743,4,1,0,0,2,0,.250,.500
645277,605135,6,1,0,0,1,1,.167,.542
645277,656876,3,1,0,0,1,0,.333,.666
645277,664299,3,0,0,0,1,0,.000,.000
645277,607074,3,2,1,2,0,0,.667,2.667
645277,669302,7,3,1,1,1,1,.429,1.357
645277,683627,2,0,0,0,0,0,.000,.000
645277,669160,7,0,0,0,2,3,.000,.300
645277,676083,5,2,0,1,0,0,.400,.800
645277,801139,5,1,0,0,1,0,.200,.600
645277,683003,2,0,0,0,0,0,.000,.000
645277,671737,6,1,0,0,2,2,.167,.542
660670,640455,4,1,0,0,0,1,.250,.650
660670,579328,9,3,1,1,2,0,.333,1.000
660670,669022,7,3,2,3,1,4,.429,2.065
660670,669467,4,1,0,1,1,0,.250,.500
660670,684007,10,2,0,1,5,1,.200,.573
660670,647336,5,1,0,1,2,1,.200,.733
660670,607536,12,3,1,3,2,2,.250,.875
660670,453286,36,10,2,5,11,1,.278,.825
660670,554430,55,14,5,8,16,2,.255,.881
660670,607259,7,1,0,0,0,2,.143,.476
660670,608331,3,1,0,0,0,0,.333,.666
660670,607074,5,0,0,0,1,0,.000,.000
660670,800048,3,1,0,0,1,0,.333,1.333
660670,641743,3,0,0,0,0,0,.000,.000
660670,664299,5,1,0,0,3,1,.200,.733
660670,683627,4,1,0,0,1,0,.250,.500
660670,605135,10,3,0,0,1,2,.300,.762
669221,579328,12,1,0,1,7,0,.083,.160
660670,623454,2,1,0,0,0,0,.500,1.500
660670,669302,3,1,0,0,1,0,.333,.666
660670,683000,3,1,0,0,1,0,.333,.666
660670,801139,1,0,0,0,1,2,.000,.667
669221,640455,1,0,0,0,1,0,.000,.000
660670,676083,8,4,1,2,1,0,.500,1.375
669221,663738,3,0,0,0,2,0,.000,.000
669221,669467,3,1,1,1,1,0,.333,1.666
669221,453286,6,2,1,2,3,0,.333,1.333
669221,669022,6,0,0,0,3,1,.000,.250
669221,607536,5,3,0,0,0,0,.600,1.400
669221,608331,2,0,0,0,1,0,.000,.000
669221,684007,4,0,0,0,1,0,.000,.000
660670,671737,6,2,0,1,0,0,.333,.833
669221,607259,7,0,0,1,2,2,.000,.222
669221,554430,13,3,1,4,4,0,.231,.769
669221,607074,8,2,0,1,3,1,.250,.708
669221,641743,3,1,0,0,1,0,.333,.833
669221,683000,2,1,1,3,0,0,.500,2.500
669221,676083,4,2,0,2,2,0,.500,1.250
669221,669302,16,2,0,0,6,0,.125,.301
669221,669160,3,0,0,0,2,1,.000,.250
669221,683627,2,1,0,0,1,0,.500,1.000
669221,656876,3,0,0,0,2,1,.000,.250
669221,664299,9,1,1,1,2,0,.111,.555
669221,671737,2,1,1,3,1,0,.500,2.500
669221,605135,9,2,0,0,3,0,.222,.555
702176,647336,2,1,0,0,0,0,.500,1.500
702176,669620,2,1,0,0,1,0,.500,1.000
702176,684007,1,0,0,0,0,0,.000,.000
702176,554430,1,0,0,1,1,0,.000,.000
702176,663738,1,1,0,0,0,0,1.000,2.000
668885,579328,3,0,0,0,0,0,.000,.000
668885,647336,2,0,0,0,1,0,.000,.000
668885,607074,11,2,0,1,0,0,.182,.455
668885,669467,3,1,0,1,0,0,.333,.666
668885,669022,3,1,0,0,1,0,.333,1.000
702176,669302,2,0,0,0,2,0,.000,.000
668885,608331,4,1,0,1,2,0,.250,.500
668885,640455,2,0,0,0,0,0,.000,.000
668885,663738,3,1,0,1,0,2,.333,.933
668885,684007,6,0,0,0,1,0,.000,.000
668885,800048,10,2,0,0,2,1,.200,.573
668885,656876,3,1,0,0,1,0,.333,1.000
668885,605135,2,0,0,0,0,0,.000,.000
668885,607259,2,0,0,0,1,0,.000,.000
668885,641743,3,0,0,0,0,0,.000,.000
668885,801139,3,0,0,0,0,0,.000,.000
668885,682227,1,0,0,1,0,1,.000,.333
668885,554430,3,0,0,0,0,0,.000,.000
668885,683003,1,0,0,0,0,1,.000,.500
668885,671737,4,2,0,0,1,1,.500,1.100
668885,650633,1,1,0,0,0,1,1.000,2.000
668885,669302,6,1,0,0,1,1,.167,.453
805346,607074,2,1,0,0,0,0,.500,1.500
686797,579328,2,1,0,0,0,0,.500,1.000
686797,640455,2,1,0,0,0,0,.500,1.000
686797,608331,3,0,0,0,2,0,.000,.000
686797,684007,7,2,0,0,2,0,.286,.715
686797,647336,1,0,0,0,1,0,.000,.000
686797,669022,1,0,0,0,0,1,.000,.500
686797,607536,3,0,0,0,1,0,.000,.000
686797,669620,2,0,0,0,0,0,.000,.000
686797,663738,8,3,0,0,2,1,.375,.944
686797,453286,4,0,0,1,0,0,.000,.000
686797,554430,2,0,0,0,0,1,.000,.333
686797,607074,2,1,1,1,0,0,.500,2.500
686797,682227,1,0,0,0,0,1,.000,.500
686797,641743,4,2,1,2,1,0,.500,2.100
686797,800048,8,2,0,0,3,0,.250,.500
686797,607259,5,0,0,0,1,0,.000,.000
686797,605135,3,2,0,0,0,0,.667,1.334
686797,671737,2,0,0,1,0,0,.000,.000
686797,623454,8,2,0,0,1,1,.250,.708
686797,683003,3,1,0,0,1,0,.333,.666
686797,656876,5,1,1,1,1,0,.200,1.000
686797,676083,2,1,0,1,0,0,.500,.833
686797,801139,3,0,0,0,3,0,.000,.000
686797,669302,3,1,0,0,0,0,.333,1.000
691181,607074,2,0,0,0,1,1,.000,.333
691181,608331,2,2,0,1,0,0,1.000,2.500
605137,640455,10,4,0,1,1,0,.400,.900
605137,663738,7,2,1,2,1,2,.286,1.158
605137,669022,6,2,1,3,1,0,.333,1.166
605137,647336,7,1,0,0,2,0,.143,.286
605137,669467,8,1,0,0,1,1,.125,.472
605137,641743,6,2,0,0,1,1,.333,.929
605137,607536,10,4,0,2,0,4,.400,.971
605137,669620,2,0,0,0,0,0,.000,.000
605137,623454,8,2,0,2,1,0,.250,.597
605137,800048,8,2,0,0,4,1,.250,.708
605137,650633,4,1,0,0,2,0,.250,.750
605137,453286,14,6,1,4,3,5,.429,1.457
605137,607074,6,2,0,2,2,2,.333,.833
605137,607259,6,2,0,0,1,0,.333,.666
605137,684007,6,2,1,1,2,0,.333,1.166
605137,608331,27,8,0,4,4,1,.296,.728
605137,683627,2,0,0,0,0,0,.000,.000
605137,605135,5,2,2,3,2,1,.400,2.100
605137,656876,4,1,0,2,2,0,.250,.500
605137,682227,6,3,0,0,0,0,.500,1.000
605137,676083,6,3,1,2,0,0,.500,1.500
605137,554430,45,13,4,9,10,3,.289,.911
605137,664299,8,0,0,0,2,1,.000,.111
665019,640455,1,0,0,0,0,0,.000,.000
605137,801139,3,1,0,0,0,0,.333,.666
605137,683003,5,1,0,0,3,0,.200,.400
665019,669620,1,0,0,0,0,1,.000,.500
605137,669160,11,1,0,0,1,1,.091,.258
665019,684007,2,0,0,0,0,0,.000,.000
665019,669022,3,0,0,0,0,0,.000,.000
665019,663738,6,0,0,0,0,0,.000,.000
665019,453286,9,2,1,1,1,0,.222,.778
665019,647336,1,1,0,0,0,0,1.000,2.000
605137,669302,13,2,0,1,6,1,.154,.368
665019,608331,3,1,0,0,0,0,.333,1.333
665019,800048,6,3,0,0,0,0,.500,1.000
665019,607074,5,0,0,0,2,1,.000,.167
665019,650633,1,0,0,0,0,0,.000,.000
665019,607259,5,1,1,2,1,0,.200,1.000
665019,669160,2,0,0,0,1,0,.000,.000
665019,623454,4,2,1,2,0,2,.500,1.917
665019,641743,5,0,0,1,1,0,.000,.000
665019,676083,2,1,0,0,1,0,.500,1.000
665019,664299,4,0,0,0,0,0,.000,.000
665019,656876,7,1,0,0,4,1,.143,.393
665019,671737,8,1,1,1,3,0,.125,.625
665019,683003,3,1,1,1,1,0,.333,1.666
807712,453286,2,1,0,0,1,0,.500,1.000
807712,641743,5,1,0,0,0,0,.200,.400
807712,669620,1,0,0,0,0,0,.000,.000
665019,801139,3,0,0,0,0,0,.000,.000
807712,608331,3,2,0,0,0,0,.667,1.334
807712,684007,3,1,0,0,0,0,.333,.666
807712,669022,3,0,0,0,1,0,.000,.000
665019,669302,4,0,0,0,1,1,.000,.333
807712,607259,2,0,0,0,0,0,.000,.000
807712,663738,4,1,0,2,0,0,.250,.750
807712,800048,11,2,0,0,2,0,.182,.455
807712,623454,4,1,0,0,1,1,.250,1.071
807712,607074,8,1,0,0,2,0,.125,.250
807712,682227,3,0,0,0,1,0,.000,.000
807712,605135,2,1,1,2,1,1,.500,2.667
807712,801139,2,1,0,1,1,0,.500,1.000
668904,663738,5,2,0,1,1,0,.400,1.000
807712,683003,2,0,0,0,1,0,.000,.000
668904,684007,8,2,1,3,1,0,.250,.972
668904,579328,2,2,0,0,0,0,1.000,2.000
807712,669302,3,1,1,1,2,1,.333,1.833
668904,669022,4,0,0,0,1,1,.000,.200
668904,608331,6,1,0,0,1,0,.167,.334
668904,623454,5,0,0,0,4,1,.000,.167
668904,453286,8,1,0,0,0,0,.125,.250
668904,650633,3,0,0,0,2,0,.000,.000
668904,607536,3,0,0,0,1,0,.000,.000
668904,669620,2,0,0,0,0,0,.000,.000
668904,640455,2,0,0,0,2,1,.000,.333
668904,669467,3,1,0,0,0,0,.333,.666
668904,607259,2,1,0,0,0,0,.500,1.500
668904,641743,1,0,0,0,0,1,.000,.500
668904,683627,1,0,0,0,0,0,.000,.000
668904,669160,3,2,0,0,0,0,.667,1.667
668904,800048,8,2,0,1,1,0,.250,.625
668904,656876,7,0,0,0,0,0,.000,.000
668904,607074,11,0,0,1,4,0,.000,.000
668904,605135,2,0,0,0,0,0,.000,.000
680777,669022,3,1,0,0,1,0,.333,.666
668904,671737,10,4,1,2,1,1,.400,1.155
668904,669302,8,2,0,0,2,0,.250,.625
680777,453286,3,0,0,0,1,0,.000,.000
680777,579328,8,1,0,0,3,2,.125,.425
680777,663738,11,4,2,5,4,1,.364,1.326
680777,669467,5,2,0,0,0,0,.400,.800
680777,647336,6,2,1,2,1,0,.333,1.166
680777,607536,3,2,0,0,0,0,.667,1.667
680777,669620,2,0,0,0,0,0,.000,.000
680777,607074,14,2,1,1,7,3,.143,.690
680777,605135,2,0,0,0,1,0,.000,.000
680777,684007,5,2,0,1,1,1,.400,1.100
680777,800048,8,3,1,2,2,1,.375,1.194
680777,641743,3,1,1,3,1,0,.333,1.666
680777,607259,3,1,0,2,0,1,.333,1.167
680777,623454,4,2,0,1,0,1,.500,1.350
680777,669160,1,0,0,0,0,1,.000,.500
680777,682227,3,0,0,0,0,0,.000,.000
680777,656876,4,0,0,0,3,0,.000,.000
680777,683003,2,1,0,0,0,0,.500,1.500
668952,669022,2,0,0,0,1,1,.000,.333
680777,676083,2,0,0,0,0,0,.000,.000
680777,671737,10,4,0,0,2,1,.400,.955
680777,669302,11,3,1,2,1,0,.273,.795
668952,607074,2,1,1,1,0,1,.500,2.667
668952,663738,7,1,0,0,1,1,.143,.393
668952,608331,5,0,0,0,2,0,.000,.000
668952,684007,2,1,0,0,0,0,.500,1.000
668952,669620,1,1,0,0,0,0,1.000,3.000
668952,800048,2,0,0,0,1,0,.000,.000
668952,641743,3,1,0,0,1,0,.333,.833
668952,801139,3,1,0,1,1,0,.333,1.000
668952,664299,4,0,0,0,3,0,.000,.000
605170,579328,1,0,0,0,1,0,.000,.000
668952,669302,5,1,0,0,2,0,.200,.400
668952,682227,1,0,0,0,0,1,.000,.500
605170,647336,3,0,0,0,1,0,.000,.000
605170,663738,2,0,0,0,0,0,.000,.000
605170,453286,23,10,2,4,5,1,.435,1.179
605170,669022,3,0,0,0,0,0,.000,.000
605170,640455,3,0,0,0,1,1,.000,.250
605170,669467,3,1,0,1,1,1,.333,.833
605170,800048,4,0,0,0,3,0,.000,.000
605170,684007,3,1,0,0,0,0,.333,.666
605170,607259,5,1,0,0,2,0,.200,.600
605170,607536,7,0,0,1,1,0,.000,.000
605170,607074,4,1,0,0,0,0,.250,.500
605170,554430,11,2,0,0,1,1,.182,.432
605170,650633,2,1,0,0,0,0,.500,1.500
605170,656876,4,0,0,0,1,0,.000,.000
605170,608331,10,0,0,0,2,1,.000,.167
605170,669620,1,1,0,0,0,1,1.000,2.000
605170,623454,1,0,0,0,0,0,.000,.000
605170,605135,2,0,0,0,1,1,.000,.333
605170,676083,1,0,0,0,1,1,.000,.500
605170,669160,2,0,0,0,2,0,.000,.000
605170,682227,5,0,0,1,0,0,.000,.000
605170,683003,1,1,0,0,0,1,1.000,2.000
605170,671737,3,0,0,0,1,0,.000,.000
605170,669302,19,2,1,3,3,0,.105,.368
805805,800048,2,0,0,0,1,0,.000,.000
669720,684007,7,1,0,0,3,0,.143,.429
805805,623454,3,0,0,0,1,1,.000,.250
669720,663738,8,3,1,1,3,1,.375,1.444
669720,554430,9,3,1,2,2,0,.333,1.111
669720,669467,9,1,1,2,2,1,.111,.644
669720,640455,4,3,2,2,0,1,.750,3.050
669720,669022,3,0,0,0,2,0,.000,.000
669720,647336,5,0,0,0,2,1,.000,.167
669720,650633,9,1,0,0,2,3,.111,.444
669720,607536,8,6,2,2,0,1,.750,2.528
669720,605135,11,2,0,0,4,0,.182,.455
669720,607259,1,0,0,0,0,0,.000,.000
669720,607074,2,0,0,0,0,0,.000,.000
669720,608331,11,5,0,1,0,0,.455,1.000
669720,641743,4,1,0,0,1,1,.250,.650
669720,656876,11,0,0,0,1,0,.000,.000
669720,579328,27,6,1,2,7,1,.222,.620
669720,682227,4,2,0,2,1,0,.500,1.250
669720,623454,1,0,0,0,0,0,.000,.000
669720,664299,6,1,1,2,1,0,.167,.834
669720,669160,4,1,0,0,1,0,.250,.750
669720,676083,3,0,0,0,1,1,.000,.250
687957,663738,1,0,0,0,0,0,.000,.000
669720,671737,3,0,0,0,0,1,.000,.250
669720,669302,8,1,0,0,2,0,.125,.250
687957,605135,3,2,0,0,0,0,.667,1.334
687957,800048,1,0,0,0,0,0,.000,.500
687957,607259,2,2,0,0,0,0,1.000,2.000
687957,683000,1,0,0,0,0,0,.000,.000
687957,656876,2,1,0,0,0,0,.500,1.000
687957,669302,2,1,1,1,0,0,.500,2.500
687957,683627,2,2,0,2,0,0,1.000,3.000
806956,682227,3,0,0,0,1,0,.000,.000
665487,579328,13,3,2,2,5,2,.231,1.025
665487,640455,20,4,0,0,7,1,.200,.488
665487,669467,5,1,0,0,2,4,.200,.756
665487,607536,33,8,2,6,5,3,.242,.851
665487,663738,1,0,0,0,0,0,.000,.000
665487,647336,7,3,0,0,2,0,.429,1.000
665487,453286,17,3,1,1,8,0,.176,.588
665487,669022,11,2,0,1,5,3,.182,.630
665487,684007,11,3,0,1,2,1,.273,.606
665487,650633,1,0,0,0,1,0,.000,.000
665487,608331,11,3,0,0,1,2,.273,.749
665487,554430,15,2,0,0,4,0,.133,.333
665487,607074,7,0,0,0,3,2,.000,.222
665487,607259,11,2,0,2,3,1,.182,.504
665487,683000,1,0,0,0,0,0,.000,.000
665487,669160,28,7,1,4,6,3,.250,.716
665487,605135,9,1,0,0,3,0,.111,.222
665487,702275,5,2,1,3,1,0,.400,1.600
665487,671737,2,0,0,0,2,1,.000,.333
665487,669302,9,1,0,1,2,0,.111,.333
665487,623454,1,1,0,0,0,0,1.000,2.000
665487,683627,4,0,0,0,3,1,.000,.200
665487,664299,7,2,2,4,1,1,.286,1.518
665487,682227,5,3,0,2,1,0,.600,1.400
665487,676083,3,0,0,0,1,0,.000,.000
665487,656876,3,0,0,0,0,0,.000,.000
666023,640455,7,2,2,3,1,0,.286,1.429
666023,579328,7,3,0,0,2,0,.429,.858
666023,684007,4,1,0,0,0,0,.250,.650
666023,663738,1,0,0,0,0,0,.000,.000
666023,669467,6,2,0,0,1,1,.333,.762
666023,554430,2,0,0,0,0,0,.000,.000
666023,650633,2,0,0,0,2,0,.000,.000
666023,607536,4,2,0,0,0,1,.500,1.100
666023,607259,4,1,0,0,0,0,.250,.500
666023,607074,5,1,0,1,2,0,.200,.400
666023,641743,1,0,0,0,0,1,.000,.500
666023,608331,6,2,0,0,1,0,.333,.666
666023,671737,5,2,0,0,0,0,.400,.800
701538,663738,1,0,0,0,0,0,.000,.000
666023,656876,2,0,0,0,2,0,.000,.000
701538,647336,2,1,0,0,0,1,.500,1.167
666023,669302,5,1,0,0,2,0,.200,.400
666023,669160,6,2,0,0,2,0,.333,.666
701538,669022,9,2,0,0,1,0,.222,.444
666023,676083,2,0,0,0,0,0,.000,.000
666023,683627,3,2,0,2,1,0,.667,2.000
701538,579328,6,2,0,1,2,0,.333,.666
666023,683000,1,0,0,0,1,0,.000,.000
666023,664299,2,2,0,0,0,0,1.000,2.000
701538,607536,5,1,0,0,1,0,.200,.400
701538,669467,7,1,0,1,2,2,.143,.619
701538,608331,6,3,1,1,1,0,.500,1.500
701538,640455,8,3,1,2,1,0,.375,1.250
701538,641743,3,0,0,0,1,0,.000,.000
701538,554430,9,2,2,3,5,1,.222,1.189
701538,702275,4,1,0,0,1,0,.250,.750
701538,453286,3,0,0,0,1,0,.000,.000
701538,684007,6,1,0,0,2,0,.167,.500
701538,607259,10,0,0,0,1,1,.000,.091
701538,656876,4,1,0,0,1,0,.250,.500
701538,683000,1,0,0,0,1,0,.000,.000
701538,605135,5,2,0,0,2,0,.400,.800
701538,607074,4,1,0,0,1,0,.250,.500
701538,669160,10,0,0,1,4,1,.000,.083
701538,683627,4,2,0,0,1,0,.500,1.250
630105,640455,14,2,0,1,2,1,.143,.414
701538,671737,2,1,0,1,0,0,.500,1.000
630105,647336,1,0,0,1,0,0,.000,.000
630105,663738,1,1,0,0,0,0,1.000,2.000
701538,676083,2,0,0,0,1,0,.000,.000
701538,682227,3,0,0,0,0,0,.000,.000
630105,579328,6,3,0,0,1,2,.500,1.167
701538,664299,3,2,1,1,0,0,.667,2.334
630105,669022,6,3,0,2,2,4,.500,1.533
701538,669302,6,0,0,0,1,0,.000,.000
630105,607536,35,9,0,7,6,1,.257,.653
630105,607259,10,2,0,2,2,0,.200,.500
630105,453286,17,0,0,0,5,2,.000,.105
630105,641743,2,0,0,0,1,0,.000,.000
630105,684007,8,2,0,0,1,0,.250,.625
630105,608331,13,3,0,1,5,1,.231,.517
630105,607074,13,2,0,0,5,1,.154,.445
630105,605135,14,3,0,2,4,0,.214,.500
630105,676083,3,2,0,0,1,0,.667,1.334
630105,669160,21,5,1,1,4,3,.238,.741
630105,554430,14,2,0,0,4,0,.143,.486
630105,683627,5,1,0,0,1,1,.200,.533
630105,669467,8,4,1,2,0,0,.500,1.500
630105,702275,1,0,0,0,1,1,.000,.500
630105,669302,12,2,1,1,1,1,.167,.648
630105,656876,5,1,0,0,2,0,.200,.600
630105,671737,3,2,0,1,0,1,.667,1.417
687749,669022,2,0,0,0,1,0,.000,.000
630105,623454,1,0,0,0,0,0,.000,.000
687749,640455,2,0,0,0,0,0,.000,.000
630105,664299,5,0,0,0,1,1,.000,.167
630105,682227,2,0,0,0,0,0,.000,.000
630105,683000,1,0,0,0,0,0,.000,.000
669134,608331,2,1,0,0,0,0,.500,1.000
669134,607536,6,3,1,2,0,0,.500,1.500
669134,607259,8,1,0,0,1,0,.125,.250
669134,605135,2,0,0,0,1,0,.000,.000
669134,607074,6,0,0,0,1,1,.000,.143
669134,683000,1,0,0,0,1,0,.000,.000
669134,676083,2,0,0,0,1,0,.000,.000
669134,683627,2,1,0,1,1,0,.500,1.500
669134,702275,2,1,0,0,0,0,.500,1.000
669134,682227,2,0,0,0,2,0,.000,.000
669134,656876,2,1,0,0,1,0,.500,1.000
669134,664299,1,1,0,1,0,1,1.000,2.000
669134,671737,1,1,0,0,0,1,1.000,2.000
592518,669022,10,3,1,3,2,3,.300,1.162
592518,663738,3,2,0,1,0,0,.667,1.334
592518,579328,13,4,2,4,1,2,.308,1.169
592518,647336,8,0,0,0,3,1,.000,.111
592518,607536,56,18,0,2,8,7,.321,.843
592518,554430,23,5,1,2,5,1,.217,.598
592518,702275,5,1,1,1,1,0,.200,1.000
592518,641743,2,2,1,1,0,0,1.000,3.500
592518,684007,12,1,1,1,6,0,.083,.416
592518,607074,23,6,2,2,8,3,.261,.911
592518,640455,24,8,0,1,6,1,.333,.818
592518,683000,1,0,0,0,1,0,.000,.000
592518,608331,20,4,1,2,3,4,.200,.683
592518,669467,14,3,0,1,5,0,.214,.500
592518,453286,57,10,4,10,21,1,.175,.624
592518,607259,17,5,0,3,3,0,.294,.823
592518,682227,2,0,0,0,1,0,.000,.000
592518,676083,3,1,0,1,0,0,.333,1.000
592518,671737,3,2,1,4,1,1,.667,2.417
592518,656876,3,0,0,0,1,1,.000,.250
592518,669160,40,10,2,5,8,2,.250,.736
669392,669022,3,1,0,0,1,0,.333,.666
592518,669302,15,2,0,0,4,3,.133,.478
592518,605135,21,5,1,3,5,0,.238,.667
669392,640455,1,1,0,0,0,1,1.000,2.000
592518,664299,8,2,1,2,3,0,.250,.875
592518,683627,4,1,0,1,1,0,.250,.750
669392,608331,3,0,0,0,1,0,.000,.000
669392,684007,3,1,0,0,1,0,.333,.666
669392,607536,2,0,0,0,0,0,.000,.000
669392,669467,3,1,0,0,0,0,.333,.666
669392,607074,2,0,0,0,1,0,.000,.000
669392,702275,2,1,0,1,1,1,.500,1.167
669392,683627,2,0,0,0,0,0,.000,.000
669392,682227,2,0,0,0,0,1,.000,.333
823550,702275,1,1,0,1,0,1,1.000,2.000
823550,656876,2,0,0,0,0,0,.000,.000
823550,669160,4,0,0,0,1,1,.000,.200
823550,676083,2,0,0,0,2,0,.000,.000
664034,607536,13,4,0,1,2,0,.308,.823
664034,669022,6,1,0,0,2,1,.167,.453
664034,453286,2,0,0,0,0,0,.000,.333
664034,579328,12,3,0,1,4,2,.250,.690
664034,554430,2,0,0,0,1,1,.000,.333
664034,640455,14,2,0,1,6,0,.143,.286
664034,669467,7,2,0,2,0,0,.286,.572
664034,650633,5,2,0,0,3,0,.400,.800
664034,641743,3,2,0,0,0,0,.667,1.334
664034,663738,6,4,0,1,1,0,.667,1.714
664034,684007,8,2,0,0,2,0,.250,.500
664034,607259,9,5,1,3,1,0,.556,1.667
664034,669160,12,4,1,1,3,0,.333,.968
664034,608331,13,1,0,0,6,0,.077,.231
664034,623454,4,2,0,0,1,0,.500,1.000
664034,683627,3,0,0,0,0,0,.000,.000
664034,607074,6,0,0,0,2,1,.000,.250
664034,656876,9,2,0,0,1,2,.222,.639
664034,683000,1,0,0,0,0,0,.000,.000
664034,682227,2,2,1,2,0,1,1.000,3.500
664034,605135,16,6,0,2,5,2,.375,.882
664034,702275,1,0,0,0,1,0,.000,.000
664034,664299,16,3,0,0,3,2,.188,.466
664034,676083,4,2,0,0,1,0,.500,1.000
593428,663738,4,1,0,0,1,0,.250,.750
593428,669022,9,4,2,6,4,1,.444,1.611
593428,684007,12,2,0,1,2,0,.167,.417
593428,607536,15,7,0,0,3,4,.467,1.179
593428,453286,16,3,0,0,6,0,.188,.423
664034,683003,2,1,1,2,1,1,.500,2.667
593428,669467,12,2,0,0,4,1,.167,.398
593428,579328,13,4,2,4,2,0,.308,1.077
664034,671737,10,1,0,1,2,0,.100,.300
593428,554430,13,3,1,1,2,1,.231,.824
593428,650633,8,4,1,2,0,1,.500,1.431
593428,640455,19,8,1,6,4,3,.421,1.162
593428,647336,3,1,0,0,0,0,.333,.666
593428,702275,4,0,0,0,3,1,.000,.200
593428,641743,4,1,0,0,0,0,.250,.500
593428,608331,13,4,0,1,5,0,.308,.616
593428,607259,16,5,1,2,2,1,.313,.889
593428,607074,17,7,0,1,3,3,.412,.912
593428,623454,1,0,0,0,0,0,.000,.000
593428,682227,5,2,0,0,0,0,.400,.800
593428,683000,1,0,0,0,0,0,.000,.000
593428,605135,11,5,1,1,4,1,.455,1.227
664761,647336,5,1,0,0,3,1,.200,.533
593428,683627,4,3,0,2,1,0,.750,1.750
593428,656876,9,2,0,3,1,2,.222,.697
593428,671737,1,0,0,1,0,0,.000,.000
593428,669160,16,3,1,1,3,1,.188,.673
593428,669302,10,3,0,1,3,0,.300,.673
593428,664299,8,2,0,2,2,0,.250,.750
664761,640455,17,6,1,5,2,0,.353,.921
664761,579328,6,0,0,0,1,0,.000,.000
664761,669022,23,5,1,5,6,2,.217,.656
664761,650633,7,2,0,0,1,0,.286,.715
664761,684007,8,1,1,2,0,0,.125,.625
664761,641743,5,2,0,3,1,0,.400,1.133
664761,669467,9,2,0,0,2,1,.222,.522
664761,800048,3,0,0,0,1,0,.000,.000
664761,453286,24,7,1,4,6,0,.292,.709
664761,607259,7,1,0,0,2,1,.143,.536
664761,608331,27,7,0,1,5,2,.259,.670
664761,607074,6,2,0,0,2,0,.333,.666
664761,607536,16,5,2,2,4,1,.313,1.041
664761,656876,4,1,1,2,2,0,.250,1.250
664761,605135,17,2,0,0,1,1,.118,.285
669016,647336,5,2,2,5,2,0,.400,2.000
669016,640455,7,0,0,0,5,2,.000,.222
664761,676083,7,1,0,1,0,0,.143,.286
664761,669302,12,3,0,1,4,0,.250,.500
664761,671737,2,0,0,0,0,0,.000,.000
664761,683003,5,3,1,1,1,0,.600,2.000
664761,664299,5,2,0,0,0,0,.400,1.200
669016,579328,5,1,0,0,1,0,.200,.400
669016,669022,7,0,0,0,4,0,.000,.000
669016,669467,7,2,0,1,0,1,.286,.661
669016,663738,3,0,0,0,0,1,.000,.250
669016,453286,11,2,0,0,3,1,.182,.523
669016,684007,5,1,0,0,1,0,.200,.400
669016,607259,5,1,0,0,0,0,.200,.400
669016,650633,6,2,0,1,2,0,.333,.666
669016,676083,6,2,0,0,1,0,.333,.666
669016,554430,3,0,0,0,3,0,.000,.000
669016,800048,1,0,0,0,0,1,.000,.500
669016,607536,4,0,0,1,3,2,.000,.286
669016,623454,1,1,0,0,0,0,1.000,2.000
669016,605135,10,3,0,0,3,4,.300,.900
669016,683000,1,0,0,0,0,0,.000,.000
669016,656876,3,2,0,0,1,0,.667,1.334
669016,671737,3,1,0,0,1,2,.333,.933
669016,641743,4,2,2,5,1,0,.500,2.500
669016,683003,5,1,1,2,2,0,.200,1.000
650559,579328,5,0,0,0,2,0,.000,.000
669016,669302,19,2,0,0,7,0,.105,.263
650559,669467,5,2,0,0,1,0,.400,1.000
650559,640455,9,2,0,0,2,0,.222,.444
650559,647336,4,1,0,0,1,0,.250,.500
650559,684007,6,0,0,0,2,0,.000,.000
650559,453286,4,0,0,0,2,0,.000,.000
669016,664299,12,5,0,1,5,0,.417,1.000
650559,554430,18,5,0,2,7,2,.278,.628
650559,669022,5,1,0,1,3,1,.200,.733
650559,607536,7,2,0,0,2,1,.286,.661
650559,650633,4,1,0,0,3,1,.250,.650
650559,607074,4,0,0,0,2,1,.000,.200
650559,682227,3,1,0,0,1,0,.333,.666
650559,669160,1,0,0,0,0,1,.000,.500
650559,656876,2,0,0,0,1,0,.000,.000
650559,641743,1,0,0,0,0,0,.000,.000
650559,683003,3,1,0,0,1,0,.333,.666
650559,608331,13,1,0,0,4,0,.077,.154
650559,607259,3,0,0,0,1,1,.000,.250
650559,671737,3,0,0,0,2,0,.000,.000
650559,605135,12,6,1,2,2,1,.500,1.538
650559,664299,2,1,0,1,0,0,.500,1.000
650559,676083,1,0,0,0,1,0,.000,.000
650559,669302,6,0,0,0,1,0,.000,.000
547180,579328,9,2,0,0,4,0,.222,.555
547180,669467,6,1,0,0,1,2,.167,.708
547180,640455,19,6,1,1,4,1,.316,.907
547180,647336,13,6,0,3,2,1,.462,1.038
547180,663738,1,0,0,0,1,1,.000,.500
547180,684007,6,0,0,0,3,0,.000,.000
547180,607536,30,7,1,5,7,1,.233,.583
547180,554430,39,8,2,5,16,5,.205,.648
547180,641743,6,1,0,0,2,1,.167,.453
547180,605135,14,1,0,0,6,1,.071,.204
547180,453286,29,8,5,6,11,7,.276,1.279
547180,669022,33,7,0,3,9,1,.212,.538
547180,607259,5,2,1,2,1,0,.400,1.400
547180,608331,35,8,2,4,12,6,.229,.798
547180,656876,5,1,0,0,1,0,.200,.400
547180,683000,1,0,0,0,0,0,.000,.000
547180,650633,5,0,0,0,1,1,.000,.167
547180,676083,7,5,1,1,0,1,.714,2.036
547180,664299,2,0,0,0,0,0,.000,.000
547180,607074,6,0,0,0,2,0,.000,.000
547180,671737,5,3,0,1,1,1,.600,1.667
547180,800048,2,0,0,0,1,1,.000,.333
681082,663738,1,0,0,0,0,0,.000,.000
681082,640455,12,4,1,1,2,2,.333,1.012
547180,683003,5,1,0,1,2,0,.200,.600
681082,647336,4,0,0,0,1,0,.000,.200
681082,579328,5,2,0,0,1,0,.400,1.000
681082,669022,9,1,1,1,2,0,.111,.555
547180,669302,8,5,0,0,1,2,.625,1.325
681082,607536,5,3,0,0,0,0,.600,1.200
681082,669467,9,3,0,0,1,1,.333,.733
681082,650633,5,3,2,4,1,1,.600,2.467
681082,607259,5,3,0,2,0,0,.600,1.600
681082,453286,16,9,0,2,2,1,.563,1.236
681082,608331,11,2,0,5,3,2,.182,.581
681082,684007,2,0,0,0,1,1,.000,.333
681082,607074,5,2,0,0,2,0,.400,.800
681082,683000,1,0,0,0,0,0,.000,.000
681082,664299,5,0,0,1,0,0,.000,.000
681082,800048,3,2,0,0,0,0,.667,1.334
656537,669022,2,0,0,0,1,0,.000,.000
681082,676083,5,2,0,0,1,1,.400,.900
681082,605135,16,2,0,1,6,1,.125,.489
681082,671737,6,1,0,1,1,0,.167,.334
681082,656876,4,0,0,0,0,0,.000,.000
681082,669302,9,4,0,1,4,1,.444,1.056
656537,663738,3,1,0,0,0,0,.333,.666
656537,684007,3,0,0,0,0,0,.000,.000
681082,683003,4,0,0,0,2,0,.000,.000
656537,579328,6,2,0,0,2,1,.333,.762
656537,608331,3,2,0,1,0,0,.667,2.000
656537,607536,5,2,1,1,2,0,.400,1.400
656537,650633,1,0,0,0,1,0,.000,.000
656537,554430,2,0,0,0,0,0,.000,.000
656537,640455,7,2,0,2,2,0,.286,.715
656537,607074,2,0,0,0,1,0,.000,.000
656537,607259,1,0,0,0,1,0,.000,.000
656537,623454,2,0,0,0,0,0,.000,.000
656537,664299,2,0,0,0,1,0,.000,.000
656537,669302,3,1,0,0,1,0,.333,.666
656537,656876,3,0,0,0,3,0,.000,.000
624641,579328,6,3,1,1,2,1,.500,1.571
656537,671737,2,1,0,0,1,0,.500,1.000
624641,669022,18,4,1,3,4,1,.222,.652
624641,453286,11,2,0,0,6,0,.182,.364
624641,663738,1,0,0,0,0,0,.000,.000
624641,607259,1,0,0,0,0,0,.000,.000
624641,607536,15,5,0,1,3,0,.333,.666
624641,641743,3,0,0,0,1,0,.000,.000
624641,684007,7,1,0,0,3,0,.143,.286
624641,640455,17,8,1,3,4,0,.471,1.471
624641,800048,2,0,0,0,0,0,.000,.000
624641,605135,4,0,0,0,3,1,.000,.200
624641,607074,5,2,0,1,3,0,.400,.900
624641,608331,14,4,1,2,1,1,.286,.946
624641,676083,2,0,0,0,0,0,.000,.000
596117,453286,4,1,0,0,2,0,.250,.500
624641,669302,2,1,0,0,0,0,.500,1.000
596117,640455,2,1,0,1,0,0,.500,1.000
596117,671737,1,0,0,0,1,1,.000,.500
596117,605135,5,0,0,0,0,0,.000,.000
596117,650633,2,0,0,0,2,0,.000,.000
596117,676083,2,0,0,0,1,0,.000,.000
596117,669302,2,0,0,0,1,0,.000,.000
592663,607536,24,3,0,2,4,1,.125,.368
592663,579328,7,2,1,1,2,0,.286,1.000
592663,647336,15,3,0,1,2,1,.200,.583
592663,669022,28,6,1,3,11,2,.214,.624
592663,684007,5,0,0,0,1,0,.000,.000
592663,640455,14,2,0,0,6,0,.143,.343
592663,453286,66,7,2,3,21,4,.106,.381
592663,554430,18,8,0,5,4,1,.444,1.006
592663,607259,7,1,0,0,1,1,.143,.393
592663,623454,1,0,0,0,1,0,.000,.000
592663,669467,5,1,0,0,0,1,.200,.533
592663,608331,43,13,3,9,12,2,.302,.938
592663,683000,2,0,0,0,1,0,.000,.000
592663,683003,3,1,0,0,1,0,.333,.666
592663,656876,5,0,0,0,2,1,.000,.167
592663,800048,3,0,0,0,1,0,.000,.000
592663,664299,2,2,0,1,0,0,1.000,2.167
592663,650633,3,1,1,2,2,0,.333,1.666
592663,676083,4,1,0,0,1,0,.250,.500
592663,607074,10,2,0,1,4,1,.200,.573
592663,671737,2,0,0,0,1,0,.000,.000
592663,641743,3,0,0,0,1,1,.000,.250
592663,605135,13,4,0,0,3,0,.308,.693
592663,669302,8,3,2,2,2,0,.375,1.500
702222,669022,2,1,0,0,1,0,.500,1.000
702222,453286,4,1,0,0,0,0,.250,.500
702222,640455,2,0,0,0,1,0,.000,.000
702222,669467,2,0,0,0,0,0,.000,.000
702222,683000,1,0,0,0,0,0,.000,.000
702222,676083,3,1,0,0,1,0,.333,1.000
702222,669302,2,0,0,0,0,0,.000,.000
702222,664299,2,1,0,0,0,0,.500,1.000
656941,647336,4,0,0,0,3,2,.000,.333
702222,683003,1,0,0,0,0,0,.000,.000
656941,669022,24,6,1,2,10,8,.250,.813
702222,671737,2,0,0,0,1,0,.000,.000
656941,579328,9,2,0,0,4,0,.222,.555
656941,663738,1,0,0,0,0,0,.000,.000
656941,669467,12,5,1,1,2,0,.417,1.167
656941,453286,22,6,2,3,10,4,.273,.930
656941,554430,10,1,0,0,3,2,.100,.350
656941,607259,5,2,1,2,2,0,.400,1.333
656941,640455,16,4,2,4,3,2,.250,.958
656941,607536,20,3,1,6,10,1,.150,.590
656941,684007,6,1,1,1,3,0,.167,.834
656941,650633,6,2,0,1,1,0,.333,.762
656941,608331,27,5,1,3,10,5,.185,.609
656941,605135,19,8,2,6,7,1,.421,1.271
656941,623454,1,0,0,0,1,0,.000,.000
656941,607074,13,3,1,2,6,0,.231,.824
656941,656876,7,2,1,1,2,1,.286,1.089
656941,641743,3,2,0,0,1,0,.667,1.417
656941,664299,4,0,0,0,3,2,.000,.333
656941,676083,8,1,0,0,4,0,.125,.250
656941,800048,3,2,0,0,0,0,.667,1.667
656941,683000,1,0,0,0,0,0,.000,.000
656941,671737,4,3,3,4,0,1,.750,3.800
656941,669302,16,4,1,2,7,1,.250,.794
650333,453286,8,3,0,1,0,0,.375,.875
650333,579328,10,3,0,0,1,1,.300,.664
656941,683003,4,1,0,0,2,1,.250,.650
650333,554430,15,4,0,0,1,0,.267,.646
650333,608331,13,4,0,0,1,2,.308,.746
650333,607536,6,3,0,0,1,0,.500,1.000
650333,640455,14,5,1,1,1,0,.357,.928
650333,647336,12,4,0,4,1,0,.333,.666
650333,669022,11,5,0,1,0,0,.455,1.091
650333,607259,7,2,1,1,0,0,.286,1.000
650333,663738,9,2,0,0,0,1,.222,.522
650333,684007,9,1,0,0,1,1,.111,.311
650333,669467,11,4,0,0,0,0,.364,.819
650333,702275,2,1,1,2,0,1,.500,2.667
650333,669160,3,1,0,0,0,0,.333,.666
650333,605135,10,2,0,0,0,0,.200,.573
650333,683627,3,1,0,0,0,0,.333,.666
650333,676083,3,1,0,1,0,0,.333,.666
650333,650633,1,1,1,2,0,0,1.000,5.000
650333,656876,4,1,0,1,0,1,.250,.650
650333,683003,3,0,0,0,0,0,.000,.000
650333,671737,4,2,0,0,0,0,.500,1.000
650333,664299,6,2,0,0,0,0,.333,.666
650333,607074,11,1,0,0,4,1,.091,.258
665561,684007,2,2,1,1,0,0,1.000,4.000
650333,669302,15,3,1,2,2,0,.200,.667
665561,608331,3,1,0,0,1,0,.333,.666
665561,669467,2,0,0,0,0,0,.000,.000
665561,605135,3,0,0,0,0,0,.000,.000
665561,664299,2,0,0,0,1,0,.000,.000
607208,669022,27,11,0,2,8,3,.407,1.003
607208,663738,3,1,0,0,0,0,.333,.666
607208,579328,6,1,0,1,0,2,.167,.542
607208,669467,7,2,0,1,1,1,.286,.661
607208,647336,19,5,0,1,5,0,.263,.631
607208,800048,3,0,0,0,2,0,.000,.000
607208,641743,4,0,0,1,0,0,.000,.000
607208,640455,22,8,2,3,6,0,.364,1.027
607208,607536,43,15,2,5,11,3,.349,.996
607208,608331,40,14,4,8,10,3,.350,1.086
607208,453286,11,5,1,2,3,0,.455,1.182
607208,684007,7,2,1,1,3,2,.286,1.158
607208,605135,12,5,0,0,0,0,.417,1.000
607208,607259,10,4,0,0,3,0,.400,.900
607208,554430,38,12,1,4,6,4,.316,.802
607208,623454,1,0,0,0,1,0,.000,.000
607208,683000,1,0,0,0,0,0,.000,.000
607208,676083,6,1,0,1,2,0,.167,.334
607208,664299,6,0,0,0,3,0,.000,.000
607208,650633,10,3,0,1,2,0,.300,.600
607208,669302,11,1,1,3,3,0,.091,.455
607208,656876,4,2,0,0,0,0,.500,1.000
607208,607074,12,2,0,0,4,0,.167,.417
683734,554430,5,1,0,2,3,0,.200,.533
683734,647336,1,0,0,0,1,0,.000,.000
683734,453286,8,1,0,0,3,0,.125,.250
607208,683003,5,1,0,0,3,0,.200,.400
683734,669620,2,1,0,0,0,0,.500,1.000
683734,684007,9,5,0,0,1,2,.556,1.303
683734,579328,14,2,0,0,1,2,.143,.464
607208,671737,5,2,1,2,1,1,.400,1.700
683734,640455,11,3,0,2,2,1,.273,.697
683734,669467,6,1,1,3,0,0,.167,.834
683734,608331,2,1,0,0,0,1,.500,1.667
683734,663738,10,4,0,2,1,4,.400,1.171
683734,607536,14,6,2,3,1,1,.429,1.467
683734,607259,8,1,1,3,2,0,.125,.625
683734,605135,9,2,0,2,4,0,.222,.555
683734,800048,1,0,0,0,0,2,.000,.667
683734,671737,2,1,0,0,1,0,.500,1.000
683734,650633,6,1,0,0,2,0,.167,.334
683734,683627,1,0,0,0,0,0,.000,.000
683734,607074,3,0,0,0,0,1,.000,.400
683734,664299,2,0,0,0,0,1,.000,.333
683734,676083,2,1,0,0,0,0,.500,1.500
683734,656876,7,2,0,0,1,0,.286,.661
666310,579328,2,0,0,0,1,1,.000,.333
683734,669302,12,2,0,0,2,0,.167,.417
683734,683003,4,2,1,2,2,0,.500,1.750
666310,554430,5,0,0,0,4,0,.000,.000
666310,608331,1,0,0,0,0,1,.000,.500
666310,453286,3,0,0,0,0,0,.000,.000
666310,669620,1,1,0,1,0,0,1.000,3.000
666310,663738,4,0,0,0,2,0,.000,.000
666310,650633,2,0,0,0,2,0,.000,.000
666310,647336,5,1,0,0,3,1,.200,.533
666310,607259,3,1,0,0,1,0,.333,1.000
666310,656876,2,0,0,0,1,0,.000,.000
668930,669022,1,0,0,0,0,1,.000,.500
668930,579328,4,1,0,0,2,1,.250,.650
666310,605135,5,2,2,2,1,1,.400,2.100
666310,671737,1,0,0,0,0,1,.000,.500
666310,676083,2,0,0,0,0,0,.000,.000
666310,683627,1,0,0,0,0,0,.000,.000
666310,607074,3,0,0,0,0,0,.000,.000
668930,640455,3,3,0,1,0,0,1.000,2.333
666310,669302,5,1,0,1,3,0,.200,.400
668930,647336,6,4,0,2,0,0,.667,1.334
666310,669160,6,1,0,0,3,0,.167,.334
668930,663738,3,0,0,0,2,0,.000,.000
668930,608331,6,0,0,0,1,0,.000,.000
668930,453286,10,3,1,1,1,0,.300,1.000
668930,669467,18,7,0,2,3,1,.389,.865
668930,554430,8,1,0,0,0,0,.125,.250
668930,607536,13,3,1,3,1,0,.231,.693
668930,607074,4,2,0,0,1,0,.500,1.000
668930,607259,16,4,1,3,4,1,.250,.857
668930,800048,3,0,0,0,2,0,.000,.000
668930,682227,2,1,0,0,0,0,.500,1.000
668930,641743,3,0,0,0,1,0,.000,.000
668930,605135,3,0,0,0,0,0,.000,.000
